Data from JCR0014_SupralabialWhite_Reflection_00002.txt Node
Date: Thu Jul 23 15:02:30 ACST 2020
User: Stacey Dix
Spectrometer: MAYP113282
Scans to average: 1
Trigger mode: 0
Integration Time (sec): 1.000000E-1
Electric dark correction enabled: true
Boxcar width: 0
XAxis mode: Wavelengths
Number of Pixels in Spectrum: 2068
>>>>>Begin Spectral Data<<<<<
198.791	-2333.33
199.266	533.33
199.74	-76.19
200.215	-38.1
200.69	17.67
201.164	40.89
201.639	12.21
202.114	58.63
202.588	84.77
203.063	24.56
203.537	53.76
204.012	68.16
204.486	32.13
204.961	85.82
205.435	29.81
205.909	36.49
206.384	63.04
206.858	62.54
207.332	21.45
207.807	26.4
208.281	48.66
208.755	11.41
209.229	26.46
209.703	15.02
210.177	21.08
210.651	39.9
211.126	23.91
211.6	47.2
212.074	28.05
212.548	41.47
213.021	69.98
213.495	15.18
213.969	35.85
214.443	0.52
214.917	34.52
215.391	25.25
215.864	36.65
216.338	32.06
216.812	43.51
217.286	32.17
217.759	43.74
218.233	-6.53
218.706	28.13
219.18	33.76
219.654	22.45
220.127	30.33
220.6	25.19
221.074	32.44
221.547	32.32
222.021	27.13
222.494	44.35
222.967	21.18
223.441	9.61
223.914	13.79
224.387	31.32
224.86	18.9
225.334	18.64
225.807	22.42
226.28	14.35
226.753	25.75
227.226	23.55
227.699	13.21
228.172	19.18
228.645	9.99
229.118	17.98
229.591	11.82
230.064	16.1
230.537	9.35
231.01	14.03
231.482	17.72
231.955	11.06
232.428	10.74
232.901	12.71
233.373	11.36
233.846	10.9
234.319	8.34
234.791	12.67
235.264	15.53
235.736	6.29
236.209	9.75
236.681	6.27
237.154	4.73
237.626	13.87
238.099	9.8
238.571	13.48
239.044	11.28
239.516	12.61
239.988	8.49
240.46	9.76
240.933	11.63
241.405	8.32
241.877	9.48
242.349	9.68
242.821	9.28
243.293	10.35
243.765	10.49
244.237	13.93
244.71	10.15
245.181	12.72
245.653	11.65
246.125	9.7
246.597	10.66
247.069	9.13
247.541	12.66
248.013	8.7
248.485	9.94
248.956	6.35
249.428	7.8
249.9	11.66
250.371	8.59
250.843	7.6
251.315	6.28
251.786	7.77
252.258	7.46
252.729	9.53
253.201	6.89
253.672	6.69
254.144	6.5
254.615	6.91
255.086	6.52
255.558	6.61
256.029	7.17
256.5	8.25
256.972	7.65
257.443	8.42
257.914	6.53
258.385	6.69
258.856	5.27
259.327	6.8
259.799	6.76
260.27	6.24
260.741	5.54
261.212	7.73
261.683	5.8
262.154	9.89
262.624	6.67
263.095	7.26
263.566	4.41
264.037	6.75
264.508	6.98
264.979	3.65
265.449	5.94
265.92	7.22
266.391	6.26
266.861	5.35
267.332	8.49
267.803	5.39
268.273	5.72
268.744	5.96
269.214	7.95
269.685	6.64
270.155	4.42
270.626	4.51
271.096	6.31
271.566	5.48
272.037	7.19
272.507	6.76
272.977	5.36
273.448	7.95
273.918	6.24
274.388	2.32
274.858	7.88
275.328	6.28
275.798	6.35
276.268	7.96
276.738	6.87
277.208	6.61
277.678	7.39
278.148	7.94
278.618	3.05
279.088	4.09
279.558	4.87
280.028	7.07
280.498	5.84
280.968	7.76
281.437	6.07
281.907	6.37
282.377	7.01
282.847	5.35
283.316	6.1
283.786	3.88
284.255	4.78
284.725	4.9
285.194	7
285.664	6.11
286.133	4.83
286.603	4.52
287.072	5.11
287.542	4.87
288.011	8.25
288.48	4.51
288.95	3.69
289.419	6.13
289.888	5.38
290.357	6.84
290.827	5.94
291.296	4.02
291.765	4.21
292.234	4.62
292.703	7.67
293.172	7.62
293.641	3.34
294.11	4.2
294.579	6.4
295.048	5.46
295.517	6.14
295.986	3.75
296.455	6.67
296.923	3.99
297.392	6.38
297.861	5.91
298.33	6.1
298.798	3.59
299.267	6.71
299.736	5.24
300.204	5.66
300.673	5.3
301.141	6.21
301.61	6.6
302.079	5.32
302.547	6.11
303.015	8.89
303.484	7.24
303.952	6.65
304.421	6.93
304.889	5.16
305.357	8.16
305.825	6.82
306.294	6.66
306.762	7.41
307.23	7.17
307.698	6.85
308.166	6.97
308.634	6.42
309.103	7.64
309.571	7.53
310.039	8.43
310.507	6.59
310.975	7.42
311.442	8.78
311.91	8.37
312.378	6.44
312.846	7.47
313.314	8.32
313.782	8.01
314.249	6.87
314.717	8.45
315.185	10.22
315.652	9.4
316.12	9.69
316.588	10.01
317.055	8.11
317.523	7.9
317.99	10.62
318.458	9.32
318.925	8.04
319.393	10.59
319.86	7.63
320.328	9.96
320.795	10.69
321.262	10.9
321.73	10.99
322.197	11.27
322.664	10.97
323.131	11.05
323.598	15.3
324.066	14.13
324.533	12.19
325	16.46
325.467	16.49
325.934	15.5
326.401	19.44
326.868	19.7
327.335	18.39
327.802	20.22
328.269	21.47
328.735	22.3
329.202	25.45
329.669	27.41
330.136	26.63
330.603	28.81
331.069	33.73
331.536	33.17
332.003	32.17
332.469	38.15
332.936	37.92
333.402	38.54
333.869	40.7
334.336	42.06
334.802	41.45
335.268	44.72
335.735	44.59
336.201	46.81
336.668	46.04
337.134	48.77
337.6	48.23
338.067	50.26
338.533	47.52
338.999	51.39
339.465	51.14
339.931	50.75
340.398	52.47
340.864	49.91
341.33	54.78
341.796	50.66
342.262	55.07
342.728	50.82
343.194	54.33
343.66	50.77
344.126	52.17
344.592	51.91
345.057	51.78
345.523	55.41
345.989	50.07
346.455	53.97
346.921	52.7
347.386	52.76
347.852	54.29
348.318	52.86
348.783	48.9
349.249	53.42
349.714	51.43
350.18	51.21
350.645	52.49
351.111	50.36
351.576	52.04
352.042	50.77
352.507	49.12
352.973	49.11
353.438	49.1
353.903	51.96
354.369	50.8
354.834	47.17
355.299	49.19
355.764	48.43
356.229	50.26
356.695	50.4
357.16	50.89
357.625	50.43
358.09	50.76
358.555	49.63
359.02	50.81
359.485	50.93
359.95	48.13
360.415	53.34
360.879	52.33
361.344	50.73
361.809	51.54
362.274	49.83
362.739	49.13
363.203	50.64
363.668	50.67
364.133	48.23
364.597	50.37
365.062	51.35
365.527	51.07
365.991	47.86
366.456	51.21
366.92	49.76
367.385	46.5
367.849	45.87
368.314	49.09
368.778	47.62
369.242	51.81
369.707	46.94
370.171	49.57
370.635	48.52
371.1	49.73
371.564	49.76
372.028	47.1
372.492	49.41
372.956	44.97
373.42	48.75
373.884	47.5
374.348	48.41
374.812	46.03
375.276	47.51
375.74	48.72
376.204	45.36
376.668	45.46
377.132	44.91
377.596	48.52
378.06	48.2
378.524	43.98
378.987	47.98
379.451	47.48
379.915	43.94
380.378	48.47
380.842	45.88
381.306	46
381.769	44.12
382.233	45
382.696	44.99
383.16	45.71
383.623	46.95
384.087	45.48
384.55	47.5
385.014	44.25
385.477	46.01
385.94	44.45
386.404	44.57
386.867	45.47
387.33	46.31
387.793	46.7
388.256	46.58
388.72	42.57
389.183	45.41
389.646	45.32
390.109	44.57
390.572	45.06
391.035	44.73
391.498	48.2
391.961	45.02
392.424	45.04
392.887	41.86
393.35	45.41
393.812	44.66
394.275	43.89
394.738	44.28
395.201	45.65
395.664	41.96
396.126	43.81
396.589	43.06
397.052	42.42
397.514	41.74
397.977	42.1
398.439	43.47
398.902	43.26
399.364	45.12
399.827	42.15
400.289	42.08
400.752	44.45
401.214	41.56
401.676	43.11
402.139	40.13
402.601	43.22
403.063	42.58
403.525	40.53
403.988	40.38
404.45	43.61
404.912	39.48
405.374	42.77
405.836	39.83
406.298	41.05
406.76	40.11
407.222	41.76
407.684	38.17
408.146	42.21
408.608	39.19
409.07	40.75
409.532	40.06
409.994	37.11
410.456	38.56
410.917	39.03
411.379	40.09
411.841	41.1
412.303	39.36
412.764	42.42
413.226	38.18
413.687	36.92
414.149	39.05
414.611	38.23
415.072	39.36
415.534	37.55
415.995	38.49
416.457	39.38
416.918	39.61
417.379	38.97
417.841	42.01
418.302	41.08
418.763	39.81
419.225	39.68
419.686	40.9
420.147	36.82
420.608	39.31
421.069	40.03
421.53	38.59
421.991	39.34
422.453	40.21
422.914	42.9
423.375	38.44
423.836	41.42
424.297	39.13
424.757	41.78
425.218	40.71
425.679	41.56
426.14	41.31
426.601	42.47
427.062	40.73
427.522	45.61
427.983	40.7
428.444	40.59
428.904	44.94
429.365	46.19
429.826	43.59
430.286	43.41
430.747	42.12
431.207	44.35
431.668	40.85
432.128	41.58
432.589	42.92
433.049	40.99
433.509	48.01
433.97	43.37
434.43	44.64
434.89	42.54
435.351	40.93
435.811	41.61
436.271	44.95
436.731	43.97
437.191	41.78
437.651	44.73
438.112	47.23
438.572	46.15
439.032	43.37
439.492	44.26
439.952	44.97
440.412	44.65
440.871	43.76
441.331	42.98
441.791	44.9
442.251	46.38
442.711	41.87
443.171	41.84
443.63	43.35
444.09	46.93
444.55	43.01
445.009	47.84
445.469	41.98
445.929	42.34
446.388	42.35
446.848	46.23
447.307	40.39
447.767	44.03
448.226	43.46
448.686	42.49
449.145	46.56
449.604	46.36
450.064	43.75
450.523	44.52
450.982	40.87
451.442	45.82
451.901	46.41
452.36	44.01
452.819	42.82
453.278	45.8
453.737	47.01
454.197	46.32
454.656	44.3
455.115	45.38
455.574	46.91
456.033	44.9
456.492	46.31
456.95	46.22
457.409	44.72
457.868	46.01
458.327	46.99
458.786	46.97
459.245	45.13
459.703	47.21
460.162	46.69
460.621	46.67
461.079	43.33
461.538	48.68
461.997	47.61
462.455	44.34
462.914	46.43
463.372	44.3
463.831	43.75
464.289	46.79
464.748	47.77
465.206	43.15
465.664	49.01
466.123	46.89
466.581	45.06
467.039	47.69
467.497	44.2
467.956	44.17
468.414	46.21
468.872	46.8
469.33	49.47
469.788	47.46
470.246	43.95
470.704	43.41
471.162	44.32
471.62	48.88
472.078	47.9
472.536	46.16
472.994	46.45
473.452	45.93
473.91	45.93
474.368	46.69
474.826	47.93
475.283	46.08
475.741	44.96
476.199	44.55
476.656	43.44
477.114	44.47
477.572	46.91
478.029	48.03
478.487	45.01
478.944	44.62
479.402	43.03
479.859	50.3
480.317	49.47
480.774	48.88
481.232	46.27
481.689	48.29
482.146	46.43
482.604	51.06
483.061	44.26
483.518	49.67
483.975	48.69
484.433	43.86
484.89	44.25
485.347	50.66
485.804	47.37
486.261	47.88
486.718	43.51
487.175	45.52
487.632	46.05
488.089	49.24
488.546	47.77
489.003	46.49
489.46	46.21
489.917	47.95
490.373	47.28
490.83	47.54
491.287	47.21
491.744	48.5
492.2	49.51
492.657	46.91
493.114	49.24
493.57	45.19
494.027	48.68
494.484	48.4
494.94	45.12
495.397	49.17
495.853	51.55
496.31	50.17
496.766	46.75
497.222	47.69
497.679	47.24
498.135	47.62
498.591	49.13
499.048	47.94
499.504	45.47
499.96	48.06
500.416	48
500.872	46.63
501.329	52.15
501.785	48.23
502.241	48.49
502.697	48.96
503.153	51.57
503.609	50.59
504.065	53.16
504.521	48.39
504.977	48.24
505.432	50.91
505.888	53.06
506.344	52.85
506.8	48.44
507.256	52.13
507.711	51.22
508.167	54.27
508.623	50.47
509.078	51.56
509.534	56.05
509.99	52.62
510.445	56.12
510.901	49.84
511.356	53.77
511.812	52.37
512.267	50.16
512.722	55.2
513.178	51.9
513.633	52.06
514.089	51.69
514.544	55.22
514.999	54.22
515.454	53.3
515.91	54.47
516.365	54.68
516.82	53.84
517.275	50.95
517.73	52.19
518.185	54.78
518.64	54.61
519.095	53.81
519.55	53.23
520.005	55.13
520.46	52.93
520.915	52.43
521.37	55.71
521.825	54.2
522.28	56.93
522.734	52.28
523.189	55.77
523.644	54.48
524.099	54.75
524.553	52.9
525.008	54.25
525.462	54.63
525.917	54.46
526.372	51.31
526.826	54.84
527.281	56.1
527.735	55.14
528.19	55.07
528.644	53.71
529.098	53.54
529.553	54.31
530.007	51.58
530.461	56.69
530.916	54.1
531.37	51.88
531.824	58.03
532.278	52.15
532.732	53.96
533.186	54.71
533.641	56.29
534.095	53.22
534.549	56.04
535.003	55.03
535.457	54.63
535.911	53
536.365	55.04
536.818	54.39
537.272	56.5
537.726	53.94
538.18	53.36
538.634	56.3
539.087	52.92
539.541	57.29
539.995	53.6
540.449	57.1
540.902	55.69
541.356	53.68
541.809	58.67
542.263	55.02
542.716	53.99
543.17	56.86
543.623	53.34
544.077	53.53
544.53	58.81
544.984	55.4
545.437	57.18
545.89	56.2
546.344	54.26
546.797	53.68
547.25	54.2
547.703	55.55
548.157	57.67
548.61	53.41
549.063	57.32
549.516	56.77
549.969	59.72
550.422	55.68
550.875	55.53
551.328	56.45
551.781	54.73
552.234	55.78
552.687	55.3
553.14	55.46
553.592	58.29
554.045	53.78
554.498	57.06
554.951	57.51
555.404	57.52
555.856	58
556.309	58.63
556.762	59.48
557.214	57.41
557.667	55.83
558.119	60.21
558.572	59.48
559.024	59.38
559.477	56.13
559.929	60.04
560.382	57.32
560.834	57.98
561.286	56.7
561.739	57.27
562.191	58.13
562.643	56.45
563.095	60.74
563.548	57.45
564	59.29
564.452	56.75
564.904	58.71
565.356	59.48
565.808	58.95
566.26	59.52
566.712	57.27
567.164	58.45
567.616	56.31
568.068	58.41
568.52	54.76
568.972	56.4
569.424	58.09
569.876	59.44
570.327	58.83
570.779	58.28
571.231	55.9
571.682	58.56
572.134	57.75
572.586	59.1
573.037	59.96
573.489	58.05
573.941	57.68
574.392	56.25
574.844	59
575.295	59.1
575.746	55.52
576.198	56.86
576.649	57.92
577.101	57.43
577.552	58.17
578.003	57.45
578.454	58.45
578.906	58.98
579.357	58.01
579.808	59.11
580.259	61.32
580.71	57.59
581.161	57.29
581.612	58.82
582.064	59.13
582.515	58.63
582.965	59.64
583.416	59.46
583.867	60.07
584.318	57.76
584.769	56.67
585.22	56.74
585.671	57.32
586.122	58.95
586.572	58.91
587.023	58.19
587.474	58.69
587.924	59.05
588.375	60.85
588.826	60.47
589.276	57.75
589.727	59.75
590.177	61.14
590.628	60.35
591.078	62.13
591.529	58.42
591.979	61.89
592.429	59.91
592.88	59.5
593.33	61.81
593.78	59.49
594.231	58.68
594.681	62.08
595.131	60.24
595.581	60.23
596.031	59.24
596.481	61.53
596.932	57.55
597.382	61.6
597.832	58.49
598.282	62.08
598.732	59.34
599.182	63.46
599.632	60.98
600.081	60.04
600.531	63.37
600.981	60.56
601.431	60.16
601.881	61.43
602.33	59.31
602.78	59.79
603.23	61.09
603.679	60.25
604.129	57.58
604.579	61.81
605.028	60.77
605.478	59.22
605.927	62.73
606.377	58.56
606.826	60.59
607.276	61.86
607.725	61.17
608.175	59.47
608.624	57.46
609.073	59.04
609.522	60.56
609.972	58.32
610.421	61.07
610.87	62.16
611.319	59.35
611.768	59.68
612.218	60.33
612.667	60.34
613.116	60.18
613.565	60.94
614.014	57.73
614.463	61.45
614.912	57.44
615.361	59.23
615.81	60.8
616.258	61.92
616.707	60.86
617.156	60.62
617.605	61.49
618.054	59.62
618.502	61.2
618.951	60.75
619.4	60.65
619.848	61.99
620.297	61.37
620.745	61.97
621.194	60.81
621.642	61.62
622.091	61.54
622.539	61.41
622.988	59.34
623.436	60.75
623.885	59.33
624.333	60.34
624.781	60.04
625.23	61.69
625.678	59.01
626.126	59.84
626.574	61.89
627.022	62.73
627.471	62.48
627.919	61.07
628.367	61.13
628.815	60.29
629.263	61.74
629.711	62.42
630.159	59.55
630.607	60.93
631.055	61.12
631.503	62.94
631.95	60.49
632.398	62.34
632.846	60.11
633.294	62.36
633.742	61.96
634.189	61.24
634.637	60.86
635.085	63.09
635.532	61.22
635.98	60.89
636.427	61.18
636.875	62.98
637.323	61.51
637.77	60.73
638.217	60.64
638.665	61.1
639.112	62.3
639.56	61.45
640.007	62.91
640.454	62.93
640.902	60.86
641.349	62.68
641.796	60.98
642.243	63.24
642.69	61.18
643.138	61.45
643.585	61.46
644.032	59.22
644.479	60.79
644.926	61.22
645.373	61.59
645.82	61.82
646.267	63.16
646.714	62.66
647.161	61.24
647.607	61.63
648.054	58.97
648.501	61.66
648.948	60.74
649.395	62.58
649.841	60.18
650.288	62.77
650.735	62.83
651.181	61.66
651.628	62.56
652.075	61.12
652.521	62.4
652.968	60.83
653.414	61.02
653.861	63.08
654.307	60.24
654.753	62.41
655.2	61.46
655.646	60.83
656.092	61.35
656.539	61.32
656.985	61.08
657.431	60.09
657.877	62.78
658.324	62
658.77	60.87
659.216	60.98
659.662	59.46
660.108	61.92
660.554	61.04
661	60.88
661.446	59.34
661.892	62.66
662.338	63.64
662.784	60.64
663.23	61.17
663.675	61.9
664.121	61.74
664.567	61.56
665.013	62.52
665.458	61.69
665.904	62.05
666.35	61.97
666.795	62.33
667.241	62.42
667.687	61.28
668.132	61.99
668.578	60.29
669.023	62.39
669.469	62.45
669.914	62.48
670.359	61.67
670.805	62.87
671.25	61.28
671.695	60.88
672.141	61.47
672.586	62.9
673.031	61.1
673.476	62.22
673.922	61.28
674.367	61.41
674.812	63.1
675.257	60.93
675.702	62.28
676.147	61.74
676.592	61.58
677.037	61.88
677.482	61.79
677.927	62.13
678.372	61.98
678.817	61.58
679.261	62.12
679.706	62.47
680.151	62.56
680.596	61.41
681.04	60.77
681.485	60.98
681.93	63.87
682.374	62.64
682.819	61.56
683.264	61.63
683.708	62.52
684.153	60.53
684.597	63.67
685.042	61.98
685.486	62.68
685.93	62.48
686.375	61.95
686.819	61.63
687.263	60.32
687.708	61.54
688.152	63.33
688.596	62.73
689.04	61.9
689.485	62.7
689.929	63.49
690.373	62.78
690.817	60.67
691.261	62.18
691.705	62.26
692.149	61.46
692.593	64.09
693.037	62.63
693.481	61.73
693.925	60.95
694.369	61.61
694.812	60.91
695.256	61.9
695.7	61.21
696.144	60.89
696.587	61.34
697.031	62.03
697.475	62.06
697.918	62.39
698.362	62.52
698.806	60.86
699.249	60.99
699.693	61.57
700.136	60.02
700.58	63.14
701.023	60.04
701.466	62.77
701.91	61
702.353	62.38
702.796	60.26
703.24	62.66
703.683	61.09
704.126	61.44
704.569	61.79
705.013	60.83
705.456	61.21
705.899	61.71
706.342	63.17
706.785	62.79
707.228	61.3
707.671	59.81
708.114	61.32
708.557	61.26
709	61.56
709.443	60.74
709.886	61.12
710.328	62.13
710.771	61.97
711.214	61.79
711.657	61.57
712.099	61.69
712.542	61.45
712.985	62.36
713.427	61.43
713.87	61.09
714.313	61.52
714.755	62.14
715.198	61.73
715.64	61.38
716.083	61.53
716.525	62.86
716.967	61.1
717.41	61.73
717.852	61.19
718.295	61.72
718.737	62.4
719.179	62.82
719.621	61.95
720.063	62.85
720.506	61.9
720.948	61.54
721.39	62.24
721.832	60.52
722.274	61.78
722.716	61.92
723.158	62.78
723.6	61.87
724.042	61.33
724.484	63.15
724.926	61.16
725.368	61.57
725.81	61.73
726.251	59.69
726.693	62.32
727.135	63.42
727.577	61.94
728.018	61.14
728.46	63.09
728.902	62.36
729.343	60.76
729.785	61.75
730.226	59.55
730.668	59.21
731.109	59.89
731.551	62.23
731.992	60.56
732.434	61.53
732.875	61.17
733.316	62.26
733.758	59.55
734.199	61.24
734.64	60.81
735.081	61.64
735.523	60.54
735.964	63.2
736.405	59.4
736.846	61.08
737.287	62.31
737.728	60.91
738.169	60.72
738.61	61.32
739.051	60.53
739.492	61.58
739.933	62.13
740.374	60.32
740.815	61.5
741.256	60.75
741.696	62.96
742.137	61.75
742.578	60.62
743.019	60.58
743.459	61.9
743.9	58.78
744.341	62.02
744.781	61.43
745.222	60.49
745.662	60.22
746.103	61
746.543	59.75
746.984	61.52
747.424	60.15
747.865	61.56
748.305	62.07
748.745	60.33
749.186	58.87
749.626	60.64
750.066	60.21
750.506	61.36
750.947	61.52
751.387	60.55
751.827	61.51
752.267	61.78
752.707	61.49
753.147	60.63
753.587	61.54
754.027	61.25
754.467	62.86
754.907	61.85
755.347	59.11
755.787	61.52
756.227	61.66
756.667	60.86
757.107	62.35
757.546	61.02
757.986	61.29
758.426	61.02
758.865	60.25
759.305	61.72
759.745	61.68
760.184	62.07
760.624	60.51
761.063	62.26
761.503	61.28
761.943	61.65
762.382	61.37
762.821	61.4
763.261	60.51
763.7	60.98
764.14	61.98
764.579	61.65
765.018	60.55
765.457	60.42
765.897	61.55
766.336	61.01
766.775	61.51
767.214	60.23
767.653	59.54
768.092	60.58
768.531	59.94
768.97	60.93
769.409	60.85
769.848	61.01
770.287	61.46
770.726	60.89
771.165	59.98
771.604	61.47
772.043	59.27
772.482	62.25
772.92	59.45
773.359	61.83
773.798	62.04
774.237	61.64
774.675	61.41
775.114	61.7
775.553	61.32
775.991	61.6
776.43	62.49
776.868	60.47
777.307	61.32
777.745	63.01
778.184	61.22
778.622	61.37
779.06	61.53
779.499	60.94
779.937	60.13
780.375	60.72
780.814	60.44
781.252	60.36
781.69	61.27
782.128	61.78
782.566	60.15
783.004	59.64
783.443	60.81
783.881	60.75
784.319	62.42
784.757	61.44
785.195	60.42
785.633	60.95
786.071	60.83
786.508	60.97
786.946	60.45
787.384	60.56
787.822	61.2
788.26	61.32
788.697	60.79
789.135	61.41
789.573	60.57
790.011	61.19
790.448	61.95
790.886	60.61
791.323	60.9
791.761	60.98
792.198	61.16
792.636	60.01
793.073	61.96
793.511	59.55
793.948	61.64
794.386	61.36
794.823	61.55
795.26	60.93
795.698	60.35
796.135	62.25
796.572	60.85
797.009	61.09
797.446	62.41
797.884	62.2
798.321	60.93
798.758	60.66
799.195	59.68
799.632	60.68
800.069	60.98
800.506	62.19
800.943	60.34
801.38	61.23
801.817	60.2
802.254	59.79
802.69	61.9
803.127	61.22
803.564	60.47
804.001	61.36
804.438	61.04
804.874	60.7
805.311	60.5
805.748	62.03
806.184	60.97
806.621	60.56
807.057	61.1
807.494	62.61
807.93	61.77
808.367	61.71
808.803	61.33
809.24	61.26
809.676	59.66
810.112	60.85
810.549	60.77
810.985	63.04
811.421	61.89
811.857	60.87
812.294	60.61
812.73	60.6
813.166	60.76
813.602	61.24
814.038	60.87
814.474	60.4
814.91	60.62
815.346	60.62
815.782	60.28
816.218	61.56
816.654	61.22
817.09	61.59
817.526	61.27
817.962	61.93
818.398	60.6
818.833	61.06
819.269	60.59
819.705	61.29
820.141	60.38
820.576	61.64
821.012	60.78
821.447	61.21
821.883	61.69
822.319	61.2
822.754	61.43
823.19	60.88
823.625	61.54
824.061	60.66
824.496	61.33
824.931	59.84
825.367	61.91
825.802	61.02
826.237	60.71
826.673	61.31
827.108	61.16
827.543	61.7
827.978	61.68
828.413	62.54
828.849	60.91
829.284	60.97
829.719	61.06
830.154	61.38
830.589	62.19
831.024	61.11
831.459	60.78
831.894	60.68
832.329	60.18
832.763	61.62
833.198	59.96
833.633	61.19
834.068	60.6
834.503	62.86
834.937	60.33
835.372	61.64
835.807	60.82
836.241	60.92
836.676	60.76
837.111	60.58
837.545	60.63
837.98	60.69
838.414	60.72
838.849	60.88
839.283	61.14
839.717	62.27
840.152	60.09
840.586	60.8
841.021	61.14
841.455	62.04
841.889	62.28
842.323	59.82
842.758	61.44
843.192	60.67
843.626	60.51
844.06	61.87
844.494	60.86
844.928	61.74
845.362	61.32
845.796	60.08
846.23	62.26
846.664	61.57
847.098	61.9
847.532	61.81
847.966	61.17
848.4	60.67
848.834	60.92
849.267	60.8
849.701	61.1
850.135	61.02
850.569	60.91
851.002	61.35
851.436	60.57
851.87	61.83
852.303	62.01
852.737	60.91
853.17	61.36
853.604	60.07
854.037	61.11
854.471	62.44
854.904	60.2
855.337	59.96
855.771	61.41
856.204	59.79
856.637	60.6
857.071	59.96
857.504	61.35
857.937	61.06
858.37	63.53
858.804	61.18
859.237	60.83
859.67	60.3
860.103	60.7
860.536	60.41
860.969	61.93
861.402	61.68
861.835	60.55
862.268	60.52
862.701	61.56
863.134	61.65
863.566	60.23
863.999	61.65
864.432	62.33
864.865	60.31
865.298	61.57
865.73	60.64
866.163	61.29
866.596	61.28
867.028	61.84
867.461	61.54
867.893	61.54
868.326	61.34
868.758	60.47
869.191	60.41
869.623	62.14
870.056	61.88
870.488	61.25
870.92	61.34
871.353	60.91
871.785	61.27
872.217	61.08
872.65	60.84
873.082	60.4
873.514	61.08
873.946	60.9
874.378	61.18
874.81	60.1
875.243	61.02
875.675	60.84
876.107	60.91
876.539	60.77
876.971	60.51
877.403	61.14
877.834	61.59
878.266	60.5
878.698	60.99
879.13	61.69
879.562	60.44
879.994	60.73
880.425	61.1
880.857	60.23
881.289	60.65
881.72	60.56
882.152	61.43
882.584	60.44
883.015	60.24
883.447	61.58
883.878	60.56
884.31	60.91
884.741	61.68
885.173	61.62
885.604	61.45
886.035	60.7
886.467	61.02
886.898	61.14
887.329	60.64
887.76	60.04
888.192	60.89
888.623	61.32
889.054	61.88
889.485	61.47
889.916	60.48
890.347	61.79
890.778	60.76
891.209	61.65
891.64	61.79
892.071	59.99
892.502	60.59
892.933	61.69
893.364	61.17
893.795	61.97
894.226	61.85
894.657	60.88
895.087	61.57
895.518	61.26
895.949	61.62
896.38	61.31
896.81	61.24
897.241	61.23
897.671	61.85
898.102	61.09
898.533	61.52
898.963	60.87
899.394	60.4
899.824	60.31
900.254	60.69
900.685	61.06
901.115	61.26
901.546	60.99
901.976	61.3
902.406	60.66
902.836	61.57
903.267	61.81
903.697	61.14
904.127	61.38
904.557	61.03
904.987	60.98
905.417	60.28
905.847	61.62
906.277	62.02
906.707	61.27
907.137	61.16
907.567	61.73
907.997	61.61
908.427	61.73
908.857	61.87
909.287	60.75
909.717	61.7
910.146	61.18
910.576	61.54
911.006	61.59
911.436	61.06
911.865	60.87
912.295	61.94
912.724	60.81
913.154	60.68
913.584	62.01
914.013	60.8
914.443	61.15
914.872	61.39
915.302	60.7
915.731	60.68
916.16	62
916.59	61.04
917.019	61.47
917.448	60.88
917.878	61.78
918.307	61.17
918.736	60.54
919.165	59.96
919.594	60.45
920.023	61.85
920.452	61.37
920.882	61
921.311	60.45
921.74	61.3
922.169	60.9
922.597	60.94
923.026	61.2
923.455	60.48
923.884	59.47
924.313	62.13
924.742	60.72
925.171	60.91
925.599	61.62
926.028	60.69
926.457	61.27
926.885	61.03
927.314	61.1
927.743	60.97
928.171	62.38
928.6	61.13
929.028	61.47
929.457	61.61
929.885	60.09
930.314	60.86
930.742	61.19
931.17	61.25
931.599	61.53
932.027	60.8
932.455	60.83
932.884	60.23
933.312	60.4
933.74	61.58
934.168	61.34
934.596	59.48
935.025	61.05
935.453	62.85
935.881	60.98
936.309	60.68
936.737	60.81
937.165	60.9
937.593	60.95
938.021	60.83
938.449	60.56
938.876	61.43
939.304	60.61
939.732	60.66
940.16	62.02
940.588	59.52
941.015	60.55
941.443	60.36
941.871	61.6
942.298	59.78
942.726	60.15
943.154	60.87
943.581	60.58
944.009	60.77
944.436	59.95
944.864	60.07
945.291	61.31
945.718	59.51
946.146	60.7
946.573	60.56
947.001	60.36
947.428	61.03
947.855	61.69
948.282	61.09
948.71	61.54
949.137	61.14
949.564	60.61
949.991	60.45
950.418	60.79
950.845	60.65
951.272	61.4
951.699	60.27
952.126	61.26
952.553	61.06
952.98	60.11
953.407	60.5
953.834	60.54
954.261	60.05
954.688	60.82
955.114	60.44
955.541	60.06
955.968	61.32
956.395	61.01
956.821	59.94
957.248	61.24
957.674	61.27
958.101	60.02
958.528	61.3
958.954	60.96
959.381	61.13
959.807	60.86
960.234	60.62
960.66	60.11
961.086	60.28
961.513	61.28
961.939	60.87
962.365	60.45
962.792	60.33
963.218	60.81
963.644	59.97
964.07	60.59
964.496	61.23
964.923	60.86
965.349	59.68
965.775	60.6
966.201	60.04
966.627	60.11
967.053	60.33
967.479	59.95
967.905	60.09
968.331	60.95
968.756	60.11
969.182	60.29
969.608	59.99
970.034	58.87
970.46	60.03
970.885	60.66
971.311	61.03
971.737	59.93
972.162	60.75
972.588	60.58
973.014	60.41
973.439	60.51
973.865	60.39
974.29	60.32
974.716	60.05
975.141	60.09
975.567	60.78
975.992	60.58
976.417	60.79
976.843	60.12
977.268	60.19
977.693	60.5
978.119	60.35
978.544	59.79
978.969	60.43
979.394	60.42
979.819	60.76
980.244	60.42
980.669	60.27
981.095	59.68
981.52	60.88
981.945	59.57
982.369	60.35
982.794	60.14
983.219	59.62
983.644	60.38
984.069	59.23
984.494	60.11
984.919	60.34
985.343	60.39
985.768	60.21
986.193	60.74
986.618	59.29
987.042	59.71
987.467	60.44
987.891	60.59
988.316	59.66
988.741	60.25
989.165	60.15
989.59	60.13
990.014	60.26
990.438	60.09
990.863	60.66
991.287	60.23
991.712	60.19
992.136	60.21
992.56	60.02
992.984	59.78
993.409	60.09
993.833	60.48
994.257	60.04
994.681	59.9
995.105	60.66
995.529	59.79
995.953	60.33
996.377	60.47
996.801	60.23
997.225	60.54
997.649	60.15
998.073	60.61
998.497	60.54
998.921	60.94
999.345	59.81
999.769	60.57
1000.192	60.34
1000.616	59.39
1001.04	60.19
1001.464	60.46
1001.887	60.05
1002.311	59.8
1002.734	60.35
1003.158	60.95
1003.582	60.39
1004.005	60.01
1004.429	60.97
1004.852	60.23
1005.275	59.3
1005.699	60.06
1006.122	60.5
1006.546	60.52
1006.969	60.13
1007.392	60.37
1007.815	60.08
1008.239	60.38
1008.662	60.41
1009.085	60.29
1009.508	60.03
1009.931	60.13
1010.354	59.97
1010.778	59.97
1011.201	60.49
1011.624	60.09
1012.047	60.33
1012.469	60.61
1012.892	59.71
1013.315	60.14
1013.738	59.56
1014.161	60.18
1014.584	61.17
1015.007	60.29
1015.429	61.39
1015.852	59.79
1016.275	60.99
1016.697	60.59
1017.12	60.87
1017.543	59.94
1017.965	60.08
1018.388	60.1
1018.81	60.8
1019.233	59.94
1019.655	60.19
1020.078	60.32
1020.5	59.65
1020.922	60.49
1021.345	60.65
1021.767	60.64
1022.189	60.07
1022.612	60.18
1023.034	59.73
1023.456	60.4
1023.878	59.41
1024.301	59.88
1024.723	59.64
1025.145	61.35
1025.567	60.07
1025.989	60.7
1026.411	59.55
1026.833	60.46
1027.255	60.7
1027.677	60.98
1028.099	60.21
1028.52	60.03
1028.942	61.17
1029.364	59.69
1029.786	59.63
1030.208	60.35
1030.629	59.7
1031.051	60.35
1031.473	60.35
1031.894	60.12
1032.316	60.67
1032.738	60
1033.159	60.02
1033.581	59.51
1034.002	60
1034.424	59.89
1034.845	60.47
1035.267	60.33
1035.688	60.3
1036.109	60.17
1036.531	60.15
1036.952	60.18
1037.373	59.79
1037.794	60.5
1038.216	60.69
1038.637	60.04
1039.058	60.33
1039.479	60.69
1039.9	59.67
1040.321	60.79
1040.742	59.89
1041.163	59.95
1041.584	59.98
1042.005	59.54
1042.426	60.51
1042.847	60
1043.268	60
1043.689	59.48
1044.11	59.88
1044.53	60.67
1044.951	60.03
1045.372	60.49
1045.793	60.78
1046.213	59.5
1046.634	60.46
1047.055	59.17
1047.475	59.13
1047.896	60.75
1048.316	60.03
1048.737	59.49
1049.157	59.05
1049.578	59.43
1049.998	61.18
1050.419	59.85
1050.839	60.4
1051.259	60.67
1051.68	59.66
1052.1	60.7
1052.52	60.79
1052.94	60.75
1053.361	60.04
1053.781	59.18
1054.201	59.91
1054.621	59.97
1055.041	60.85
1055.461	59.36
1055.881	60.07
1056.301	60.37
1056.721	60.34
1057.141	59.43
1057.561	60.01
1057.981	60.51
1058.401	60.61
1058.82	59.94
1059.24	59.68
1059.66	60.28
1060.08	59.82
1060.499	60.51
1060.919	60.53
1061.339	58.84
1061.758	59.38
1062.178	59.13
1062.598	60.62
1063.017	60.99
1063.437	58.76
1063.856	58.76
1064.276	58.7
1064.695	59.82
1065.114	59.36
1065.534	59.36
1065.953	60.8
1066.372	61.19
1066.792	62.04
1067.211	59.48
1067.63	60.93
1068.049	60.88
1068.469	61.06
1068.888	60.97
1069.307	61.05
1069.726	59.93
1070.145	59.95
1070.564	61
1070.983	60.1
1071.402	60.9
1071.821	60.09
1072.24	61.36
1072.659	58.09
1073.078	61.14
1073.496	59.2
1073.915	58.59
1074.334	59.01
1074.753	57.24
1075.171	59.37
1075.59	59.12
1076.009	59.9
1076.427	58.3
1076.846	58.52
1077.265	57.89
1077.683	58.11
1078.102	62.25
1078.52	59.33
1078.939	57.55
1079.357	58.5
1079.776	60.84
1080.194	59.81
1080.612	59.9
1081.031	59.16
1081.449	59.03
1081.867	58.21
1082.285	60.42
1082.704	59.7
1083.122	58.72
1083.54	56.88
1083.958	57.05
1084.376	59.86
1084.794	59.59
1085.212	58.26
1085.63	59.38
1086.048	60.04
1086.466	60.5
1086.884	59.08
1087.302	58.54
1087.72	57.84
1088.138	59.76
1088.555	57.07
1088.973	58.22
1089.391	59.41
1089.809	59.47
1090.226	60.89
1090.644	60.3
1091.062	60.32
1091.479	59.67
1091.897	58.52
1092.314	59.94
1092.732	56.94
1093.15	58.97
1093.567	59.21
1093.984	58.98
1094.402	59.33
1094.819	59.23
1095.237	57.6
1095.654	58.13
1096.071	59.12
1096.488	58.53
1096.906	55.52
1097.323	58.56
1097.74	59.65
1098.157	60.4
1098.574	58.04
1098.991	61.13
1099.409	57.77
1099.826	58.68
1100.243	58.5
1100.66	59.95
1101.077	57.78
1101.494	57.5
1101.91	60.48
1102.327	57.5
1102.744	57.89
1103.161	57.36
1103.578	55.79
1103.994	58.26
1104.411	58.11
1104.828	57.45
1105.245	55.79
1105.661	54.83
1106.078	59.07
1106.494	56.46
1106.911	60.82
1107.328	56.19
1107.744	56.66
1108.161	60.65
1108.577	59.09
1108.993	57.62
1109.41	56.44
1109.826	57.97
1110.242	54.81
1110.659	57.86
1111.075	55.37
1111.491	58.74
1111.908	57.65
1112.324	58.84
1112.74	47.98
1113.156	57.15
1113.572	55.53
1113.988	56.95
1114.404	58.8
1114.82	55.75
1115.236	55.07
1115.652	52.43
1116.068	57.12
1116.484	59.45
1116.9	52.7
1117.316	54.4
1117.732	-95.24
1118.147	7.41
1118.563	66.67
1118.979	29.63
