Data from JCR0014_PreoccularBrown_Reflection_00003.txt Node
Date: Thu Jul 23 15:03:36 ACST 2020
User: Stacey Dix
Spectrometer: MAYP113282
Scans to average: 1
Trigger mode: 0
Integration Time (sec): 1.000000E-1
Electric dark correction enabled: true
Boxcar width: 0
XAxis mode: Wavelengths
Number of Pixels in Spectrum: 2068
>>>>>Begin Spectral Data<<<<<
198.791	-966.67
199.266	166.67
199.74	90.48
200.215	-4.76
200.69	-35.74
201.164	21.78
201.639	11.74
202.114	37.12
202.588	7.82
203.063	4.76
203.537	-89.25
204.012	7.12
204.486	6
204.961	11.88
205.435	-6.23
205.909	-10.18
206.384	11.11
206.858	27.15
207.332	-13.62
207.807	10.23
208.281	13.38
208.755	-17.72
209.229	13.99
209.703	7.51
210.177	0.28
210.651	9
211.126	-9.43
211.6	4.62
212.074	-13.56
212.548	20.73
213.021	8.75
213.495	10.03
213.969	-43.42
214.443	-27.65
214.917	14.42
215.391	14.4
215.864	-9.16
216.338	-0.91
216.812	26.55
217.286	3.15
217.759	13.73
218.233	-33.33
218.706	18.69
219.18	6.15
219.654	12.23
220.127	6.15
220.6	-11.83
221.074	14.69
221.547	-11.98
222.021	-4.18
222.494	4.55
222.967	-2.05
223.441	5.74
223.914	6.89
224.387	12.17
224.86	6.96
225.334	3.55
225.807	6.11
226.28	-1.94
226.753	11.11
227.226	-1.35
227.699	8.94
228.172	7.97
228.645	-7.08
229.118	2.51
229.591	6.25
230.064	1.36
230.537	4.98
231.01	2.66
231.482	0.34
231.955	-5.43
232.428	5.9
232.901	2.73
233.373	1.72
233.846	2.07
234.319	-5.7
234.791	7.6
235.264	2.88
235.736	-2.35
236.209	3.55
236.681	1.24
237.154	-1.75
237.626	4.36
238.099	4.61
238.571	1.94
239.044	4.04
239.516	6.03
239.988	3.7
240.46	5.45
240.933	5.69
241.405	1.04
241.877	3.34
242.349	-0.49
242.821	3.23
243.293	5.82
243.765	3.17
244.237	5.86
244.71	3.91
245.181	6.74
245.653	6.03
246.125	4.2
246.597	4.38
247.069	4.16
247.541	5.15
248.013	5.62
248.485	3.15
248.956	1.69
249.428	1.05
249.9	5.61
250.371	0.64
250.843	2.96
251.315	2.79
251.786	3.27
252.258	3.95
252.729	4.35
253.201	0.93
253.672	1.64
254.144	2.57
254.615	2.36
255.086	2.23
255.558	4.45
256.029	2.97
256.5	4.16
256.972	2.55
257.443	3.79
257.914	2.91
258.385	3.04
258.856	0.29
259.327	3.58
259.799	2.96
260.27	2.04
260.741	3.21
261.212	4.52
261.683	3
262.154	2.39
262.624	2
263.095	2.24
263.566	2.91
264.037	2.47
264.508	2.59
264.979	0.99
265.449	1.94
265.92	3.13
266.391	1.88
266.861	2.68
267.332	2.62
267.803	1.68
268.273	2.25
268.744	2.07
269.214	2.87
269.685	3.48
270.155	0.34
270.626	1.83
271.096	1.99
271.566	1.44
272.037	1.71
272.507	4.18
272.977	1.4
273.448	3.22
273.918	3.17
274.388	1.37
274.858	3.1
275.328	1.45
275.798	1.16
276.268	3.72
276.738	4.14
277.208	3.92
277.678	1.98
278.148	2.27
278.618	-0.29
279.088	2.15
279.558	2.64
280.028	1.38
280.498	4.24
280.968	3.74
281.437	1.84
281.907	2.24
282.377	4.55
282.847	2.43
283.316	2.46
283.786	2.63
284.255	2.04
284.725	2.57
285.194	3.46
285.664	2.71
286.133	2.8
286.603	1.81
287.072	2.71
287.542	1.63
288.011	1.28
288.48	1.84
288.95	1.06
289.419	3.5
289.888	1.85
290.357	2.04
290.827	1.14
291.296	1.78
291.765	2.73
292.234	1.29
292.703	2.88
293.172	3.66
293.641	-0.06
294.11	1.71
294.579	4.52
295.048	2.62
295.517	1.31
295.986	2.03
296.455	3.22
296.923	3.46
297.392	1.62
297.861	3.52
298.33	1.37
298.798	2.15
299.267	3.24
299.736	3.33
300.204	1.6
300.673	2.85
301.141	2.83
301.61	2.62
302.079	2.62
302.547	2.94
303.015	4.05
303.484	4.31
303.952	1.01
304.421	3.62
304.889	2.2
305.357	4.77
305.825	3.68
306.294	2.25
306.762	3.82
307.23	0.88
307.698	1.64
308.166	2.64
308.634	2.82
309.103	2.23
309.571	2.51
310.039	2.11
310.507	2.27
310.975	2.34
311.442	3.07
311.91	2.94
312.378	1.01
312.846	3.56
313.314	3.61
313.782	2.65
314.249	2.07
314.717	1.66
315.185	3.11
315.652	3.16
316.12	1.81
316.588	3.13
317.055	2.27
317.523	2.3
317.99	4.24
318.458	3.06
318.925	2.73
319.393	2.43
319.86	1.93
320.328	1.88
320.795	3.09
321.262	2.58
321.73	4.34
322.197	2.57
322.664	2.41
323.131	4
323.598	3.8
324.066	1.33
324.533	2.11
325	5.66
325.467	2.37
325.934	2.74
326.401	4.7
326.868	4.7
327.335	3.85
327.802	2.06
328.269	2.03
328.735	2.8
329.202	2.92
329.669	2.81
330.136	3.02
330.603	3.46
331.069	4.26
331.536	1.44
332.003	2.97
332.469	3.44
332.936	2.02
333.402	2.27
333.869	3.43
334.336	3.25
334.802	2.26
335.268	3.12
335.735	2.82
336.201	1.57
336.668	3.77
337.134	5.01
337.6	1.19
338.067	3.26
338.533	2.54
338.999	3.88
339.465	2.62
339.931	2.03
340.398	3.34
340.864	1.7
341.33	3.34
341.796	3.09
342.262	3.26
342.728	4.32
343.194	2.85
343.66	1.99
344.126	1.73
344.592	2.2
345.057	4.44
345.523	3.31
345.989	3.34
346.455	5.49
346.921	3.61
347.386	2.27
347.852	2.45
348.318	3.29
348.783	2.73
349.249	3.32
349.714	2.27
350.18	2.55
350.645	2.49
351.111	2.23
351.576	1.28
352.042	4
352.507	0.47
352.973	2.26
353.438	2.08
353.903	1.9
354.369	3.47
354.834	1.97
355.299	2.45
355.764	1.68
356.229	2.33
356.695	1.71
357.16	0.86
357.625	1.51
358.09	1.98
358.555	1.36
359.02	3.36
359.485	1.67
359.95	0.61
360.415	2.24
360.879	3.6
361.344	1.75
361.809	1.96
362.274	2.31
362.739	0.92
363.203	4.76
363.668	1.97
364.133	3.43
364.597	2.39
365.062	1.36
365.527	1.22
365.991	1.67
366.456	4.15
366.92	0.22
367.385	1.75
367.849	2.59
368.314	1.44
368.778	1.51
369.242	2.67
369.707	0.99
370.171	3.54
370.635	2.71
371.1	0.92
371.564	1.86
372.028	2.88
372.492	2.67
372.956	1.14
373.42	1.85
373.884	3.06
374.348	2.53
374.812	1.56
375.276	3.24
375.74	1.49
376.204	2.75
376.668	2.27
377.132	2.54
377.596	1.9
378.06	2.54
378.524	2.23
378.987	1.52
379.451	0.93
379.915	1.83
380.378	2.83
380.842	1.49
381.306	1.42
381.769	0.56
382.233	2.89
382.696	2.37
383.16	1.57
383.623	1.32
384.087	2.35
384.55	2.08
385.014	1.19
385.477	1.99
385.94	2.44
386.404	2.28
386.867	1.21
387.33	3.41
387.793	1.63
388.256	0.61
388.72	1.29
389.183	1.41
389.646	0.7
390.109	2.92
390.572	1.34
391.035	3.32
391.498	1.68
391.961	1.48
392.424	2.33
392.887	1.49
393.35	1.65
393.812	2.78
394.275	2.12
394.738	2.81
395.201	2.39
395.664	2.01
396.126	0.81
396.589	1.95
397.052	1.81
397.514	1.22
397.977	2.19
398.439	2.56
398.902	1.05
399.364	2.06
399.827	1.44
400.289	2.61
400.752	2.34
401.214	0.89
401.676	2.29
402.139	1.25
402.601	2.18
403.063	1.36
403.525	2.39
403.988	2.77
404.45	2.19
404.912	1.03
405.374	2.6
405.836	3.11
406.298	1.78
406.76	1.66
407.222	2.09
407.684	4.08
408.146	2.37
408.608	1.85
409.07	2.01
409.532	1.75
409.994	1.46
410.456	2.12
410.917	1.84
411.379	-0.05
411.841	1.5
412.303	1.94
412.764	0.56
413.226	1.24
413.687	1.76
414.149	0.97
414.611	1.43
415.072	2.11
415.534	0.7
415.995	0.93
416.457	1.64
416.918	0.49
417.379	2.7
417.841	2.46
418.302	2.85
418.763	1.75
419.225	2.16
419.686	0.66
420.147	2
420.608	1.77
421.069	1.51
421.53	1.12
421.991	2.04
422.453	1.73
422.914	2.22
423.375	1.64
423.836	1.27
424.297	1.89
424.757	1.62
425.218	2.11
425.679	0.92
426.14	1.68
426.601	1.11
427.062	1.11
427.522	1.94
427.983	2.3
428.444	0.8
428.904	2.31
429.365	1.39
429.826	1.09
430.286	1.15
430.747	1.64
431.207	1.58
431.668	1.01
432.128	1.01
432.589	3.12
433.049	1.65
433.509	-0.98
433.97	0.97
434.43	1.87
434.89	0.82
435.351	3.12
435.811	-0.36
436.271	1.43
436.731	3.4
437.191	1.89
437.651	1.68
438.112	1.45
438.572	2.74
439.032	2.9
439.492	2.31
439.952	2.21
440.412	1.06
440.871	2.19
441.331	2.46
441.791	2.42
442.251	0.51
442.711	1.81
443.171	0.56
443.63	0.74
444.09	3.96
444.55	1.69
445.009	1.91
445.469	-0.35
445.929	1.59
446.388	2.83
446.848	2.1
447.307	1.13
447.767	2.16
448.226	-0.42
448.686	-0.24
449.145	0.19
449.604	2.02
450.064	2.63
450.523	1.53
450.982	1.93
451.442	0.27
451.901	1.52
452.36	1.21
452.819	2.04
453.278	2.59
453.737	2.45
454.197	0.8
454.656	0.88
455.115	3.33
455.574	1.81
456.033	2.53
456.492	1.22
456.95	0.93
457.409	0.19
457.868	1.21
458.327	2.94
458.786	0.84
459.245	2.68
459.703	1.21
460.162	2.5
460.621	0.86
461.079	0.76
461.538	0.21
461.997	3.49
462.455	0.68
462.914	0.41
463.372	2.06
463.831	-0.91
464.289	-1.11
464.748	-0.08
465.206	-0.98
465.664	3.12
466.123	4.07
466.581	0.22
467.039	1.79
467.497	0.52
467.956	2.76
468.414	0.33
468.872	2.77
469.33	1.86
469.788	0.42
470.246	1.03
470.704	3.32
471.162	3.54
471.62	1.77
472.078	2.18
472.536	-0.42
472.994	-1.49
473.452	1.67
473.91	1.36
474.368	3.44
474.826	1.88
475.283	1.95
475.741	1.97
476.199	2.11
476.656	2.45
477.114	2.04
477.572	2.12
478.029	0.98
478.487	3.25
478.944	2.04
479.402	0.23
479.859	2.56
480.317	1.2
480.774	1.15
481.232	-1.5
481.689	1.74
482.146	2.86
482.604	4.23
483.061	1.75
483.518	1.04
483.975	1.12
484.433	3.7
484.89	0.67
485.347	5.33
485.804	2.54
486.261	3.5
486.718	0.66
487.175	-0.54
487.632	2.55
488.089	4.55
488.546	1.83
489.003	2.83
489.46	4.4
489.917	2.92
490.373	3.02
490.83	3.28
491.287	5.28
491.744	-0.54
492.2	2
492.657	5.27
493.114	3.09
493.57	3.66
494.027	4.34
494.484	2.48
494.94	0.67
495.397	3.37
495.853	5.74
496.31	4.19
496.766	2.29
497.222	2.83
497.679	1.9
498.135	3.6
498.591	2.81
499.048	3.04
499.504	1.81
499.96	1.86
500.416	2.49
500.872	2.27
501.329	2.98
501.785	3.68
502.241	3.35
502.697	2.96
503.153	2.14
503.609	1.76
504.065	2.64
504.521	1.92
504.977	1.07
505.432	3.82
505.888	3.54
506.344	3.77
506.8	1.12
507.256	3.63
507.711	3.8
508.167	0.83
508.623	3.44
509.078	2.88
509.534	5.88
509.99	3.3
510.445	4.47
510.901	2.74
511.356	3.02
511.812	3.56
512.267	4.35
512.722	2.89
513.178	4.19
513.633	3.43
514.089	2.83
514.544	1.89
514.999	3.88
515.454	1.95
515.91	2.38
516.365	5.67
516.82	3.26
517.275	3.51
517.73	4.08
518.185	3.44
518.64	3.79
519.095	3.29
519.55	2.94
520.005	4.51
520.46	3.05
520.915	2.73
521.37	4.56
521.825	3.83
522.28	2.95
522.734	3.04
523.189	3.91
523.644	3.81
524.099	3.22
524.553	3.24
525.008	3.45
525.462	4.78
525.917	5.12
526.372	2.76
526.826	4.24
527.281	4.05
527.735	3.46
528.19	4.61
528.644	4.1
529.098	4.15
529.553	3.62
530.007	4.59
530.461	4.83
530.916	3.59
531.37	4.78
531.824	3.39
532.278	3.27
532.732	4.28
533.186	3.5
533.641	3.8
534.095	3.71
534.549	5.39
535.003	4.72
535.457	4.84
535.911	3.33
536.365	5.5
536.818	1.75
537.272	3.72
537.726	4.75
538.18	4.04
538.634	2.72
539.087	5.2
539.541	4.93
539.995	4.18
540.449	6.74
540.902	0.77
541.356	4.71
541.809	4.97
542.263	3.08
542.716	5.99
543.17	2.97
543.623	2.56
544.077	3.7
544.53	5.31
544.984	5.33
545.437	2.98
545.89	4.01
546.344	4.76
546.797	3.48
547.25	4.76
547.703	3.25
548.157	4.59
548.61	4.56
549.063	2.82
549.516	5.55
549.969	4.87
550.422	4.12
550.875	4.47
551.328	3.52
551.781	5.17
552.234	6.49
552.687	4.86
553.14	3.22
553.592	4.96
554.045	3.51
554.498	4.71
554.951	5.74
555.404	6.43
555.856	5.56
556.309	4.97
556.762	6.15
557.214	5.81
557.667	4.32
558.119	5.11
558.572	5.71
559.024	5.98
559.477	3.93
559.929	4.76
560.382	4.08
560.834	4.52
561.286	3.52
561.739	6.12
562.191	4.79
562.643	5.81
563.095	4.79
563.548	4.68
564	5.18
564.452	4.34
564.904	7.27
565.356	4.8
565.808	5.07
566.26	6.34
566.712	4.92
567.164	5.58
567.616	5.92
568.068	5.77
568.52	5.64
568.972	4.72
569.424	6.28
569.876	5.86
570.327	6.15
570.779	5.27
571.231	5.24
571.682	4.72
572.134	5.04
572.586	4.26
573.037	5.71
573.489	6.22
573.941	6.7
574.392	4.84
574.844	6.04
575.295	6.31
575.746	4.53
576.198	6.11
576.649	6.15
577.101	6.55
577.552	7.31
578.003	6.18
578.454	5.49
578.906	5.75
579.357	5.38
579.808	6.94
580.259	5.73
580.71	5.65
581.161	4.56
581.612	5.09
582.064	6.4
582.515	5.85
582.965	5.64
583.416	6.05
583.867	5.44
584.318	4.91
584.769	6.09
585.22	5.08
585.671	6.78
586.122	4.77
586.572	7.15
587.023	5.35
587.474	6.48
587.924	5.27
588.375	4.86
588.826	5.78
589.276	4.39
589.727	6.72
590.177	5.4
590.628	6.99
591.078	5.98
591.529	5.95
591.979	5.67
592.429	6.37
592.88	4.58
593.33	7.81
593.78	6.2
594.231	6.1
594.681	5.45
595.131	7.59
595.581	5.55
596.031	5.44
596.481	5.46
596.932	4.83
597.382	4.48
597.832	6.02
598.282	6.84
598.732	5.55
599.182	6.7
599.632	6.32
600.081	7.1
600.531	6.07
600.981	6.21
601.431	5.89
601.881	5.44
602.33	5.89
602.78	6.3
603.23	4.92
603.679	6.41
604.129	5.45
604.579	6.04
605.028	6.11
605.478	6.66
605.927	6.47
606.377	5.68
606.826	6.28
607.276	5.82
607.725	6.21
608.175	6.15
608.624	7.35
609.073	5.02
609.522	5.25
609.972	6.18
610.421	7.31
610.87	6.26
611.319	6.28
611.768	6.75
612.218	6.08
612.667	5.7
613.116	7.08
613.565	5.62
614.014	5.98
614.463	7.94
614.912	6.17
615.361	6.13
615.81	6.85
616.258	7.06
616.707	7.31
617.156	7.41
617.605	6.31
618.054	8.03
618.502	6.18
618.951	6.64
619.4	7.29
619.848	6.69
620.297	7.1
620.745	6.51
621.194	5.74
621.642	7.2
622.091	7.4
622.539	5.62
622.988	7.35
623.436	6.32
623.885	6.62
624.333	6.93
624.781	6.9
625.23	7.46
625.678	6.43
626.126	6.92
626.574	7.3
627.022	6.78
627.471	7.18
627.919	6.75
628.367	7.45
628.815	7.27
629.263	6.96
629.711	7.03
630.159	7.02
630.607	6.48
631.055	6.96
631.503	6.67
631.95	6.73
632.398	6.83
632.846	6.33
633.294	7.48
633.742	7.45
634.189	7.29
634.637	7.24
635.085	7.3
635.532	6.92
635.98	7.49
636.427	7.15
636.875	7.12
637.323	6.81
637.77	6.87
638.217	6.84
638.665	6.9
639.112	7.08
639.56	7.3
640.007	7.35
640.454	8
640.902	9.08
641.349	7.42
641.796	6.4
642.243	7.6
642.69	6.81
643.138	7.51
643.585	8.33
644.032	7.53
644.479	6.24
644.926	6.89
645.373	7.76
645.82	7.57
646.267	8.13
646.714	6.56
647.161	7.58
647.607	6.77
648.054	8.07
648.501	8.22
648.948	8.04
649.395	7.48
649.841	6.71
650.288	7.62
650.735	8.04
651.181	7.7
651.628	6.66
652.075	7.79
652.521	7.48
652.968	7.33
653.414	7.92
653.861	7.29
654.307	8.02
654.753	7.35
655.2	8.08
655.646	8.17
656.092	7.65
656.539	7.02
656.985	7.85
657.431	8.1
657.877	8.1
658.324	8.01
658.77	8.06
659.216	7.4
659.662	7.15
660.108	8.19
660.554	8.47
661	7.17
661.446	7.82
661.892	7.91
662.338	7.57
662.784	7.19
663.23	7.02
663.675	7.72
664.121	8.3
664.567	7.54
665.013	8.15
665.458	7.36
665.904	8.52
666.35	7.38
666.795	7.45
667.241	7.89
667.687	6.75
668.132	8.06
668.578	7.08
669.023	7.65
669.469	8.23
669.914	8.07
670.359	8.23
670.805	7.83
671.25	8.34
671.695	7.07
672.141	8.06
672.586	8.62
673.031	7.9
673.476	7.95
673.922	8.43
674.367	7.88
674.812	7.76
675.257	7.99
675.702	7.97
676.147	8.15
676.592	8.85
677.037	8.41
677.482	8.24
677.927	8.88
678.372	8.83
678.817	8.27
679.261	8.34
679.706	9.23
680.151	8.39
680.596	8.43
681.04	8.72
681.485	8.2
681.93	8.44
682.374	8.58
682.819	8.23
683.264	8.29
683.708	8.8
684.153	8.74
684.597	8.55
685.042	9.15
685.486	7.9
685.93	9.03
686.375	8.31
686.819	8.24
687.263	8.1
687.708	8.3
688.152	8.31
688.596	8.11
689.04	8.21
689.485	8.96
689.929	8.44
690.373	9.06
690.817	8.38
691.261	8.25
691.705	8.43
692.149	8.76
692.593	8.67
693.037	7.98
693.481	8.28
693.925	8.41
694.369	9.17
694.812	9.24
695.256	8.09
695.7	9.48
696.144	9.12
696.587	8.16
697.031	7.94
697.475	8.72
697.918	8.68
698.362	8.28
698.806	9.03
699.249	8.51
699.693	8.9
700.136	8.84
700.58	8.71
701.023	8.62
701.466	8.57
701.91	8.57
702.353	8.62
702.796	8.23
703.24	8.47
703.683	9.01
704.126	8.96
704.569	8.71
705.013	9.07
705.456	9.14
705.899	8.84
706.342	8.82
706.785	8.96
707.228	8.5
707.671	8.81
708.114	9.55
708.557	9.38
709	8.63
709.443	9.14
709.886	9.03
710.328	8.56
710.771	8.68
711.214	9.25
711.657	8.89
712.099	9.36
712.542	8.91
712.985	9.22
713.427	9.91
713.87	8.99
714.313	9.01
714.755	8.99
715.198	8.89
715.64	9.17
716.083	9.45
716.525	9.21
716.967	9.54
717.41	9.5
717.852	8.6
718.295	9
718.737	8.93
719.179	9.16
719.621	9.34
720.063	9.58
720.506	9.27
720.948	8.95
721.39	9.36
721.832	9.24
722.274	9.38
722.716	9.49
723.158	9.07
723.6	10.31
724.042	9.18
724.484	9.18
724.926	9.48
725.368	9.07
725.81	9.48
726.251	8.67
726.693	9.96
727.135	10.17
727.577	9.59
728.018	9.68
728.46	9.51
728.902	9.51
729.343	9
729.785	9.33
730.226	9.8
730.668	9.47
731.109	10.16
731.551	9.09
731.992	9.84
732.434	9.43
732.875	9.95
733.316	9.86
733.758	9.78
734.199	9.46
734.64	9.81
735.081	9.58
735.523	9.53
735.964	9.89
736.405	9.86
736.846	8.79
737.287	9.05
737.728	9.19
738.169	9.54
738.61	9.33
739.051	9.2
739.492	9.49
739.933	10.45
740.374	9.7
740.815	10.18
741.256	8.57
741.696	9.8
742.137	9.61
742.578	9.45
743.019	9.91
743.459	10.01
743.9	9.46
744.341	9.58
744.781	9.87
745.222	9.7
745.662	10.43
746.103	10.1
746.543	9.27
746.984	9.65
747.424	9.72
747.865	10.12
748.305	10.04
748.745	9.27
749.186	9.53
749.626	10.03
750.066	10.16
750.506	10.8
750.947	9.7
751.387	9.46
751.827	9.66
752.267	9.74
752.707	9.76
753.147	10.2
753.587	9.59
754.027	9.62
754.467	9.8
754.907	10.25
755.347	9.38
755.787	10.3
756.227	9.83
756.667	10.57
757.107	9.22
757.546	9.79
757.986	10.25
758.426	10.28
758.865	10.17
759.305	10.07
759.745	9.62
760.184	10.02
760.624	9.75
761.063	10.33
761.503	10.08
761.943	10.54
762.382	10.31
762.821	10.38
763.261	9.42
763.7	9.86
764.14	10.24
764.579	10.26
765.018	10.12
765.457	10.14
765.897	10.24
766.336	9.96
766.775	10.14
767.214	10.72
767.653	10.15
768.092	10.68
768.531	10.07
768.97	11.19
769.409	10.39
769.848	10.06
770.287	10.64
770.726	10.75
771.165	10.44
771.604	10.09
772.043	10.15
772.482	10.13
772.92	10.45
773.359	10.6
773.798	10.84
774.237	10.57
774.675	11.22
775.114	10.28
775.553	10.51
775.991	10.56
776.43	11.04
776.868	11.49
777.307	10.56
777.745	10.84
778.184	10.74
778.622	10.54
779.06	11.02
779.499	10.42
779.937	10.55
780.375	10.26
780.814	10.32
781.252	10.45
781.69	10.64
782.128	10.7
782.566	10.89
783.004	10.63
783.443	10.89
783.881	10.28
784.319	11.06
784.757	11.07
785.195	11.05
785.633	11.11
786.071	10.99
786.508	10.97
786.946	10.71
787.384	10.88
787.822	10.47
788.26	11.68
788.697	11.48
789.135	11.04
789.573	10.75
790.011	10.62
790.448	10.41
790.886	11.2
791.323	10.28
791.761	10.69
792.198	10.84
792.636	11.38
793.073	10.76
793.511	10.82
793.948	11.2
794.386	11.05
794.823	10.36
795.26	11.06
795.698	10.57
796.135	11.27
796.572	11.09
797.009	11.28
797.446	10.56
797.884	10.93
798.321	10.91
798.758	11.26
799.195	10.88
799.632	11.11
800.069	10.72
800.506	10.97
800.943	10.94
801.38	11.48
801.817	11.38
802.254	10.93
802.69	10.92
803.127	11.28
803.564	10.95
804.001	10.89
804.438	11.33
804.874	11.23
805.311	11.03
805.748	11.17
806.184	11.12
806.621	11.51
807.057	11.74
807.494	11.26
807.93	11.46
808.367	11.04
808.803	11.48
809.24	11.15
809.676	11.22
810.112	11.51
810.549	10.92
810.985	11.32
811.421	11.47
811.857	11.69
812.294	11.69
812.73	10.81
813.166	11.67
813.602	11.3
814.038	11.44
814.474	11.23
814.91	11.52
815.346	11.32
815.782	11.17
816.218	11.74
816.654	11.62
817.09	12.13
817.526	11.85
817.962	11.25
818.398	11.63
818.833	11.8
819.269	11.21
819.705	11.41
820.141	11.67
820.576	12.02
821.012	11.05
821.447	12.37
821.883	11.45
822.319	11.29
822.754	11.44
823.19	11.81
823.625	11.61
824.061	10.99
824.496	11.39
824.931	11.86
825.367	11.66
825.802	11.72
826.237	11.92
826.673	11.97
827.108	12.1
827.543	11.72
827.978	12
828.413	11.85
828.849	11.87
829.284	12.29
829.719	12.18
830.154	11.66
830.589	11.64
831.024	12.19
831.459	12.04
831.894	12.16
832.329	11.88
832.763	11.87
833.198	11.47
833.633	11.83
834.068	11.95
834.503	11.53
834.937	11.78
835.372	12.14
835.807	12.13
836.241	11.82
836.676	11.93
837.111	11.65
837.545	12.05
837.98	11.81
838.414	11.73
838.849	11.7
839.283	12.18
839.717	12.05
840.152	12.07
840.586	12.04
841.021	12.49
841.455	11.98
841.889	12.06
842.323	12.54
842.758	11.76
843.192	12.17
843.626	12.44
844.06	11.82
844.494	12
844.928	12.17
845.362	12.04
845.796	11.91
846.23	12.16
846.664	11.96
847.098	12.65
847.532	12.2
847.966	12.06
848.4	12.04
848.834	12.11
849.267	11.48
849.701	12.3
850.135	12.41
850.569	12.08
851.002	12.55
851.436	12.36
851.87	12.55
852.303	12.43
852.737	12.77
853.17	12.24
853.604	12.21
854.037	12.42
854.471	12.55
854.904	12.2
855.337	12.76
855.771	12.23
856.204	12.35
856.637	12.74
857.071	12.08
857.504	12.2
857.937	12.58
858.37	13.15
858.804	12.72
859.237	12.32
859.67	12.57
860.103	12.63
860.536	12.49
860.969	12.48
861.402	12.57
861.835	12.5
862.268	12.5
862.701	12.39
863.134	12.32
863.566	12.11
863.999	13.02
864.432	12.7
864.865	12.26
865.298	12.68
865.73	12.45
866.163	12.42
866.596	12.54
867.028	13.02
867.461	12.49
867.893	12.68
868.326	12.78
868.758	12.54
869.191	12.83
869.623	12.8
870.056	12.79
870.488	12.79
870.92	12.29
871.353	12.7
871.785	12.61
872.217	13.04
872.65	12.59
873.082	13.09
873.514	12.87
873.946	12.59
874.378	13.11
874.81	13.1
875.243	12.69
875.675	12.82
876.107	12.81
876.539	12.61
876.971	12.71
877.403	12.85
877.834	12.68
878.266	12.6
878.698	12.48
879.13	13.05
879.562	12.78
879.994	13.23
880.425	12.87
880.857	13.17
881.289	12.95
881.72	12.9
882.152	12.83
882.584	12.79
883.015	13.02
883.447	13.11
883.878	13.39
884.31	13.05
884.741	13.08
885.173	12.8
885.604	13.03
886.035	12.8
886.467	13.19
886.898	12.77
887.329	12.64
887.76	13.4
888.192	12.97
888.623	13.14
889.054	13.03
889.485	12.85
889.916	13.14
890.347	13.07
890.778	12.57
891.209	13.23
891.64	13.26
892.071	13.11
892.502	13.09
892.933	13.26
893.364	13.09
893.795	13.52
894.226	13.06
894.657	13.15
895.087	13.21
895.518	12.99
895.949	13.24
896.38	13.41
896.81	13.09
897.241	13.11
897.671	13.46
898.102	13.48
898.533	13.53
898.963	12.9
899.394	13.17
899.824	13.14
900.254	13.55
900.685	13.41
901.115	13.58
901.546	13.27
901.976	13.47
902.406	12.99
902.836	13.34
903.267	13.23
903.697	12.93
904.127	13.07
904.557	13.09
904.987	12.82
905.417	12.56
905.847	13.24
906.277	13.27
906.707	13.21
907.137	13.55
907.567	12.94
907.997	13.47
908.427	13.48
908.857	13.19
909.287	13.08
909.717	13.35
910.146	13.17
910.576	13.6
911.006	13.34
911.436	13.1
911.865	13.45
912.295	13.59
912.724	13.61
913.154	13.42
913.584	13.42
914.013	13.27
914.443	13.52
914.872	13.67
915.302	13.48
915.731	12.83
916.16	14.05
916.59	13.46
917.019	13.52
917.448	13.4
917.878	13.7
918.307	13.37
918.736	13.54
919.165	13.4
919.594	13.65
920.023	13.72
920.452	13.92
920.882	13.77
921.311	13.53
921.74	13.6
922.169	13.72
922.597	13.23
923.026	13.45
923.455	13.73
923.884	13.67
924.313	13.88
924.742	13.6
925.171	13.51
925.599	13.64
926.028	13.76
926.457	13.82
926.885	13.54
927.314	14.04
927.743	13.58
928.171	13.67
928.6	13.76
929.028	13.59
929.457	13.66
929.885	13.54
930.314	13.58
930.742	13.86
931.17	13.88
931.599	13.59
932.027	13.76
932.455	13.33
932.884	13.27
933.312	13.63
933.74	13.93
934.168	13.82
934.596	13.54
935.025	13.55
935.453	13.59
935.881	13.82
936.309	13.4
936.737	13.77
937.165	13.17
937.593	13.72
938.021	13.92
938.449	14.08
938.876	13.5
939.304	13.9
939.732	13.56
940.16	13.69
940.588	13.59
941.015	13.56
941.443	13.72
941.871	13.19
942.298	13.95
942.726	13.68
943.154	13.12
943.581	13.66
944.009	13.81
944.436	13.66
944.864	13.79
945.291	13.48
945.718	13.97
946.146	13.84
946.573	14.16
947.001	13.31
947.428	13.38
947.855	13.93
948.282	13.77
948.71	13.82
949.137	13.21
949.564	13.51
949.991	13.36
950.418	14.15
950.845	13.21
951.272	13.71
951.699	13.72
952.126	13.53
952.553	14.19
952.98	14.01
953.407	13.78
953.834	13.78
954.261	13.58
954.688	13.74
955.114	13.69
955.541	13.46
955.968	13.86
956.395	14.09
956.821	13.63
957.248	13.94
957.674	13.84
958.101	13.84
958.528	14
958.954	13.85
959.381	14.11
959.807	14.16
960.234	13.83
960.66	13.94
961.086	13.75
961.513	14.01
961.939	13.92
962.365	13.69
962.792	14.09
963.218	13.75
963.644	13.77
964.07	13.8
964.496	14.2
964.923	14
965.349	14.23
965.775	14.16
966.201	14.05
966.627	13.78
967.053	13.77
967.479	13.96
967.905	13.91
968.331	14
968.756	13.8
969.182	13.58
969.608	13.64
970.034	13.87
970.46	13.96
970.885	14.18
971.311	13.85
971.737	13.95
972.162	14.03
972.588	14.04
973.014	13.86
973.439	13.87
973.865	14.07
974.29	13.65
974.716	13.82
975.141	13.63
975.567	14.13
975.992	13.97
976.417	14.37
976.843	13.89
977.268	14.02
977.693	13.9
978.119	13.76
978.544	13.82
978.969	13.82
979.394	14.1
979.819	14.02
980.244	13.49
980.669	14.04
981.095	14.01
981.52	13.65
981.945	13.97
982.369	14.41
982.794	13.93
983.219	13.99
983.644	13.74
984.069	13.99
984.494	14.06
984.919	13.99
985.343	13.9
985.768	13.96
986.193	13.96
986.618	14
987.042	14.08
987.467	14.12
987.891	13.8
988.316	14.16
988.741	14.05
989.165	14.23
989.59	14.36
990.014	14.11
990.438	14.05
990.863	13.93
991.287	14.03
991.712	14.24
992.136	13.99
992.56	13.99
992.984	13.89
993.409	14.49
993.833	13.88
994.257	13.88
994.681	13.85
995.105	14.02
995.529	14.05
995.953	13.94
996.377	14.24
996.801	14.13
997.225	14.14
997.649	14.12
998.073	14.5
998.497	14.23
998.921	13.95
999.345	13.94
999.769	14.27
1000.192	14.19
1000.616	14.13
1001.04	14.26
1001.464	13.84
1001.887	14.15
1002.311	14.34
1002.734	13.86
1003.158	14.36
1003.582	14.32
1004.005	14.03
1004.429	14.23
1004.852	14.14
1005.275	14.11
1005.699	14.29
1006.122	14.13
1006.546	14.24
1006.969	14.46
1007.392	14.14
1007.815	14.34
1008.239	13.89
1008.662	13.99
1009.085	14.37
1009.508	14.06
1009.931	14.25
1010.354	13.88
1010.778	14.32
1011.201	14.38
1011.624	14.28
1012.047	14.18
1012.469	14.26
1012.892	14.11
1013.315	14.3
1013.738	14.55
1014.161	14.21
1014.584	13.86
1015.007	14.46
1015.429	14.36
1015.852	14.56
1016.275	14.32
1016.697	14.28
1017.12	14.38
1017.543	14.28
1017.965	14.36
1018.388	14.18
1018.81	14.18
1019.233	14.61
1019.655	14.22
1020.078	14.66
1020.5	14.3
1020.922	14.52
1021.345	14.4
1021.767	14.27
1022.189	14.66
1022.612	14.13
1023.034	14.45
1023.456	14.24
1023.878	14.16
1024.301	14.3
1024.723	14.31
1025.145	14.87
1025.567	14.7
1025.989	14.16
1026.411	14.15
1026.833	14.21
1027.255	14.46
1027.677	14.65
1028.099	14.29
1028.52	14.41
1028.942	14.28
1029.364	14.11
1029.786	14.69
1030.208	14.55
1030.629	14.42
1031.051	14.15
1031.473	14.28
1031.894	14.42
1032.316	14.62
1032.738	14.24
1033.159	14.25
1033.581	14.23
1034.002	14.24
1034.424	14.67
1034.845	14.07
1035.267	14.14
1035.688	14.3
1036.109	14.25
1036.531	14.12
1036.952	14.46
1037.373	14.43
1037.794	14.28
1038.216	14.61
1038.637	15.03
1039.058	14.59
1039.479	14.42
1039.9	14.47
1040.321	15.03
1040.742	14.1
1041.163	14.65
1041.584	14.14
1042.005	14.44
1042.426	13.98
1042.847	14.52
1043.268	14.36
1043.689	14.5
1044.11	14.12
1044.53	14.6
1044.951	13.92
1045.372	14.68
1045.793	14.52
1046.213	14.18
1046.634	14.3
1047.055	14.22
1047.475	14.41
1047.896	14.72
1048.316	14.9
1048.737	14.07
1049.157	14.59
1049.578	14.64
1049.998	14.38
1050.419	14.46
1050.839	14.67
1051.259	14.43
1051.68	14.8
1052.1	14.6
1052.52	14.64
1052.94	14.16
1053.361	14.44
1053.781	14.16
1054.201	14.36
1054.621	14.16
1055.041	14.6
1055.461	14.45
1055.881	14.4
1056.301	14.18
1056.721	14.34
1057.141	14.89
1057.561	14.43
1057.981	14.85
1058.401	14.98
1058.82	14.44
1059.24	14.37
1059.66	14.73
1060.08	14.06
1060.499	14.58
1060.919	14.37
1061.339	13.68
1061.758	13.7
1062.178	14.33
1062.598	14.64
1063.017	13.9
1063.437	15.02
1063.856	14.27
1064.276	14.32
1064.695	13.68
1065.114	14.03
1065.534	13.3
1065.953	14.63
1066.372	14.48
1066.792	14.58
1067.211	15.78
1067.63	14.12
1068.049	14.54
1068.469	14.13
1068.888	14.5
1069.307	13.58
1069.726	14.16
1070.145	14.03
1070.564	13.93
1070.983	14.37
1071.402	15.25
1071.821	14.21
1072.24	14.43
1072.659	14.47
1073.078	14.14
1073.496	14.34
1073.915	14.45
1074.334	14.18
1074.753	13.65
1075.171	14.4
1075.59	14.09
1076.009	14.68
1076.427	14.53
1076.846	15.09
1077.265	13.66
1077.683	13.48
1078.102	15.43
1078.52	14.14
1078.939	14.39
1079.357	14.32
1079.776	14.78
1080.194	13.72
1080.612	14.71
1081.031	14.15
1081.449	13.98
1081.867	14.91
1082.285	14.45
1082.704	14.28
1083.122	14.46
1083.54	13.56
1083.958	14.7
1084.376	14.41
1084.794	13.62
1085.212	13.97
1085.63	15.09
1086.048	14.36
1086.466	13.58
1086.884	13.93
1087.302	13.15
1087.72	14.35
1088.138	13.15
1088.555	14.35
1088.973	14.15
1089.391	13.65
1089.809	14.98
1090.226	13.72
1090.644	16.03
1091.062	14.04
1091.479	14.69
1091.897	14.22
1092.314	14.79
1092.732	13.64
1093.15	13.85
1093.567	13.85
1093.984	13.83
1094.402	14.08
1094.819	13.42
1095.237	14.03
1095.654	12.36
1096.071	13.71
1096.488	12.46
1096.906	13.84
1097.323	15.22
1097.74	14.28
1098.157	14.22
1098.574	12.92
1098.991	12.96
1099.409	13.78
1099.826	14.05
1100.243	14.39
1100.66	15.06
1101.077	12.97
1101.494	13.34
1101.91	16.07
1102.327	13.33
1102.744	13.21
1103.161	13.45
1103.578	12.78
1103.994	13
1104.411	13.54
1104.828	13.55
1105.245	13.09
1105.661	13.63
1106.078	13.24
1106.494	12.74
1106.911	13.66
1107.328	12.68
1107.744	11.91
1108.161	14.65
1108.577	14.33
1108.993	12.65
1109.41	16.53
1109.826	12.61
1110.242	11.61
1110.659	12.91
1111.075	13.51
1111.491	14.06
1111.908	12.69
1112.324	14.89
1112.74	-4.63
1113.156	12.44
1113.572	13.3
1113.988	15.51
1114.404	12.29
1114.82	16.96
1115.236	14.06
1115.652	15.49
1116.068	14.46
1116.484	15.39
1116.9	10.27
1117.316	16.4
1117.732	-4.76
1118.147	3.7
1118.563	51.52
1118.979	-18.52
