Data from JCR0014_SupralabialBlack_Reflection_00003.txt Node
Date: Thu Jul 23 15:03:02 ACST 2020
User: Stacey Dix
Spectrometer: MAYP113282
Scans to average: 1
Trigger mode: 0
Integration Time (sec): 1.000000E-1
Electric dark correction enabled: true
Boxcar width: 0
XAxis mode: Wavelengths
Number of Pixels in Spectrum: 2068
>>>>>Begin Spectral Data<<<<<
198.791	-1700
199.266	1300
199.74	-100
200.215	14.29
200.69	44.58
201.164	14.67
201.639	57.75
202.114	50.35
202.588	3.7
203.063	24.81
203.537	9.68
204.012	19.1
204.486	33.81
204.961	56.32
205.435	10.57
205.909	7.37
206.384	33.33
206.858	13.4
207.332	6.09
207.807	0.99
208.281	41.61
208.755	26.13
209.229	2.29
209.703	13.51
210.177	24.79
210.651	43.07
211.126	-4.83
211.6	21.17
212.074	37.93
212.548	48.03
213.021	17.73
213.495	23.58
213.969	-2.52
214.443	-8.53
214.917	33.33
215.391	32.54
215.864	26.32
216.338	28.96
216.812	31.74
217.286	9.45
217.759	29.41
218.233	14.69
218.706	20.23
219.18	18.45
219.654	29.65
220.127	20.17
220.6	26.27
221.074	22.61
221.547	8.23
222.021	16.02
222.494	21.59
222.967	19.86
223.441	16.28
223.914	8.47
224.387	26.35
224.86	22.74
225.334	23.92
225.807	11.11
226.28	12.91
226.753	22.3
227.226	20.76
227.699	7.23
228.172	16.47
228.645	1.12
229.118	8.23
229.591	11.88
230.064	11.26
230.537	17.1
231.01	12.05
231.482	11.89
231.955	-4.72
232.428	9.45
232.901	13.56
233.373	14.29
233.846	9.81
234.319	7.92
234.791	12.9
235.264	12.31
235.736	7.06
236.209	9.78
236.681	5.61
237.154	9.75
237.626	12.61
238.099	9.96
238.571	8.04
239.044	11.3
239.516	9.62
239.988	9.6
240.46	11.29
240.933	12.17
241.405	9.74
241.877	8.86
242.349	7.51
242.821	8.63
243.293	11.27
243.765	7.36
244.237	9.8
244.71	9.27
245.181	12.87
245.653	10.72
246.125	8.02
246.597	9.73
247.069	12.49
247.541	10.05
248.013	8.47
248.485	5.2
248.956	5.98
249.428	9.53
249.9	9.84
250.371	8.29
250.843	8.67
251.315	7.78
251.786	6.2
252.258	7.21
252.729	8.46
253.201	9.5
253.672	8.49
254.144	5.91
254.615	9.63
255.086	6.46
255.558	8.12
256.029	7.05
256.5	7.62
256.972	8.21
257.443	8.71
257.914	7.39
258.385	7.51
258.856	4.93
259.327	8.28
259.799	7.06
260.27	4.58
260.741	7.05
261.212	8.52
261.683	6.49
262.154	8.29
262.624	7.98
263.095	6.19
263.566	5.36
264.037	6.2
264.508	9.15
264.979	4.08
265.449	7.73
265.92	6.47
266.391	7.85
266.861	7.54
267.332	5.61
267.803	4.27
268.273	7.12
268.744	5.82
269.214	7.57
269.685	7.86
270.155	4.92
270.626	4.36
271.096	6.59
271.566	6.03
272.037	5.51
272.507	9.71
272.977	6.76
273.448	7.77
273.918	6.94
274.388	5.34
274.858	8.1
275.328	7.83
275.798	7.61
276.268	5.61
276.738	9.9
277.208	8.47
277.678	8.68
278.148	4.46
278.618	7.12
279.088	6.13
279.558	7.2
280.028	4.64
280.498	6.8
280.968	7.23
281.437	5.81
281.907	6.55
282.377	8.95
282.847	6.97
283.316	5.4
283.786	4.22
284.255	6.43
284.725	7.32
285.194	6.48
285.664	6.13
286.133	5
286.603	5.96
287.072	7
287.542	5.88
288.011	6.84
288.48	6.43
288.95	5.8
289.419	6.22
289.888	6.27
290.357	7.61
290.827	5.28
291.296	5.57
291.765	6.43
292.234	5.16
292.703	8.27
293.172	8.22
293.641	5.31
294.11	4.13
294.579	7.51
295.048	4.95
295.517	6.31
295.986	6.23
296.455	5.99
296.923	7.52
297.392	7.01
297.861	5.48
298.33	4.68
298.798	6.06
299.267	8.29
299.736	5.89
300.204	7.9
300.673	6.49
301.141	6.46
301.61	8.11
302.079	7.4
302.547	8.52
303.015	7.66
303.484	6.56
303.952	6.28
304.421	6.5
304.889	5.85
305.357	8.17
305.825	6.22
306.294	6.43
306.762	6.57
307.23	7.66
307.698	7.64
308.166	7.13
308.634	7.37
309.103	7.02
309.571	6.21
310.039	8.67
310.507	6.89
310.975	5.18
311.442	7.22
311.91	8.16
312.378	7.02
312.846	7.69
313.314	9.03
313.782	9.07
314.249	6.06
314.717	7.3
315.185	8.48
315.652	7.45
316.12	7.7
316.588	8.15
317.055	8.34
317.523	8.56
317.99	9.7
318.458	8.32
318.925	9.59
319.393	6.93
319.86	7.07
320.328	8.03
320.795	8.12
321.262	9.59
321.73	5.81
322.197	8.15
322.664	9.85
323.131	9
323.598	9.82
324.066	9.51
324.533	9.45
325	11.96
325.467	9.71
325.934	10.05
326.401	12.38
326.868	12.14
327.335	12.68
327.802	11.63
328.269	12.18
328.735	14.6
329.202	14.01
329.669	17.44
330.136	14.52
330.603	14.46
331.069	17.21
331.536	17
332.003	17.71
332.469	19.22
332.936	18.56
333.402	18.44
333.869	20.22
334.336	20.27
334.802	19.27
335.268	20.99
335.735	21.42
336.201	22.51
336.668	23.29
337.134	23.72
337.6	22.7
338.067	25.48
338.533	25.36
338.999	23.89
339.465	22.88
339.931	24.26
340.398	25.59
340.864	24.13
341.33	23.79
341.796	23.45
342.262	23.84
342.728	24.24
343.194	23.77
343.66	23.3
344.126	22.57
344.592	23.49
345.057	24.66
345.523	24.62
345.989	23.42
346.455	25.39
346.921	24.12
347.386	24.64
347.852	24.3
348.318	25.11
348.783	23.73
349.249	22.47
349.714	22.09
350.18	23.59
350.645	24.99
351.111	23.7
351.576	23.07
352.042	24.04
352.507	21.96
352.973	22.92
353.438	22.21
353.903	24.28
354.369	23.26
354.834	22.18
355.299	22.77
355.764	23.46
356.229	21.78
356.695	22.9
357.16	20.89
357.625	22.63
358.09	22.65
358.555	22.54
359.02	23.08
359.485	23.57
359.95	21.68
360.415	23.18
360.879	22.77
361.344	23.55
361.809	22.35
362.274	22.26
362.739	20.4
363.203	22.65
363.668	22.56
364.133	22.92
364.597	23.19
365.062	23.32
365.527	21.49
365.991	21.29
366.456	21.81
366.92	20.88
367.385	20.01
367.849	21.74
368.314	21.92
368.778	20.42
369.242	23
369.707	22.45
370.171	22.53
370.635	21.51
371.1	22.13
371.564	21.17
372.028	20.95
372.492	21.68
372.956	19.37
373.42	20.27
373.884	21.13
374.348	21.47
374.812	21.23
375.276	20.14
375.74	22.68
376.204	21.02
376.668	20.8
377.132	22.23
377.596	24.38
378.06	21.2
378.524	19.91
378.987	20.63
379.451	21.55
379.915	19.91
380.378	21.59
380.842	20.55
381.306	20.7
381.769	19.31
382.233	18.92
382.696	21.88
383.16	19.2
383.623	21.35
384.087	20.23
384.55	21.04
385.014	20.12
385.477	19.3
385.94	18
386.404	22.09
386.867	21.71
387.33	20.55
387.793	21.12
388.256	20.06
388.72	18.41
389.183	20.09
389.646	20.44
390.109	19.53
390.572	21.86
391.035	20.02
391.498	19.83
391.961	18.42
392.424	19.97
392.887	19.69
393.35	21.2
393.812	20.84
394.275	19.05
394.738	20.09
395.201	21.08
395.664	18.7
396.126	18.38
396.589	19.74
397.052	20.03
397.514	17.76
397.977	18.31
398.439	18.73
398.902	18.89
399.364	18.93
399.827	18.44
400.289	20.31
400.752	17.41
401.214	17.69
401.676	17.74
402.139	16.9
402.601	17.14
403.063	17.7
403.525	17.57
403.988	18.56
404.45	18.16
404.912	17.18
405.374	18.72
405.836	17.22
406.298	18.5
406.76	18.55
407.222	18.42
407.684	18.28
408.146	17.13
408.608	16.09
409.07	18.19
409.532	17.73
409.994	15.73
410.456	16.58
410.917	17.04
411.379	17.39
411.841	17.06
412.303	17.02
412.764	15.86
413.226	16.38
413.687	15.09
414.149	16.09
414.611	16.26
415.072	16.2
415.534	17.31
415.995	17.31
416.457	17.75
416.918	16.35
417.379	16.13
417.841	17.63
418.302	17.55
418.763	17.04
419.225	15.39
419.686	15.63
420.147	16.18
420.608	16.43
421.069	17.34
421.53	17.03
421.991	17.2
422.453	15.77
422.914	18.6
423.375	17.41
423.836	18.02
424.297	16.79
424.757	18.02
425.218	15.94
425.679	17.35
426.14	18
426.601	16.59
427.062	17.25
427.522	18.81
427.983	17.72
428.444	17.21
428.904	19.54
429.365	21.12
429.826	18.33
430.286	17.11
430.747	17.07
431.207	17.72
431.668	19.14
432.128	19.45
432.589	21.11
433.049	16.35
433.509	17.93
433.97	19.6
434.43	19.47
434.89	17.89
435.351	17.05
435.811	19.41
436.271	18.77
436.731	16.89
437.191	17.84
437.651	19.76
438.112	18.14
438.572	21.29
439.032	19.64
439.492	19.08
439.952	18.54
440.412	18.33
440.871	16.89
441.331	17.35
441.791	19.31
442.251	17.85
442.711	18.67
443.171	16.39
443.63	20.93
444.09	20.97
444.55	18.19
445.009	18.99
445.469	14.93
445.929	17.74
446.388	20.55
446.848	18.45
447.307	18.08
447.767	18.67
448.226	17.62
448.686	18.93
449.145	16.85
449.604	18.89
450.064	21.21
450.523	19.14
450.982	21.74
451.442	16.63
451.901	17.09
452.36	17.62
452.819	18.9
453.278	18.68
453.737	18.89
454.197	19.84
454.656	19.84
455.115	21.06
455.574	17.71
456.033	18.75
456.492	18.93
456.95	18.03
457.409	20.11
457.868	20.24
458.327	20.09
458.786	19.01
459.245	16.89
459.703	18.68
460.162	19.59
460.621	20.17
461.079	19.27
461.538	18.07
461.997	17.79
462.455	18
462.914	17.96
463.372	17.5
463.831	18.52
464.289	18.57
464.748	18.33
465.206	18.86
465.664	21.04
466.123	21.4
466.581	15.4
467.039	18.8
467.497	22.08
467.956	21.14
468.414	19.24
468.872	18.29
469.33	18.66
469.788	19.22
470.246	19.33
470.704	19.14
471.162	20.33
471.62	16.95
472.078	17.56
472.536	20.09
472.994	16.75
473.452	19.55
473.91	18.66
474.368	20.49
474.826	17.88
475.283	20.28
475.741	16.22
476.199	17.25
476.656	20.7
477.114	18.38
477.572	20.95
478.029	18.65
478.487	17.16
478.944	17.65
479.402	18.2
479.859	19.24
480.317	18.79
480.774	18.37
481.232	18.5
481.689	21.27
482.146	17.31
482.604	20.25
483.061	19.67
483.518	21.76
483.975	20.75
484.433	17.18
484.89	17.54
485.347	21.52
485.804	19.6
486.261	20.94
486.718	17.87
487.175	16.92
487.632	18.66
488.089	22.72
488.546	19.38
489.003	18.03
489.46	21.86
489.917	19.22
490.373	17.62
490.83	20.16
491.287	19.44
491.744	18.93
492.2	20.62
492.657	20.65
493.114	19.56
493.57	19.85
494.027	18.67
494.484	20.54
494.94	16.78
495.397	18.26
495.853	22.52
496.31	19.69
496.766	21.45
497.222	20.8
497.679	18.43
498.135	23.09
498.591	17
499.048	21.29
499.504	18.01
499.96	22.07
500.416	19.65
500.872	18.89
501.329	20.59
501.785	20.9
502.241	18.78
502.697	20.57
503.153	20.77
503.609	18.93
504.065	23.26
504.521	20.67
504.977	21.91
505.432	23.73
505.888	18.93
506.344	24.3
506.8	20.28
507.256	23.34
507.711	21.32
508.167	20.54
508.623	20.67
509.078	23.2
509.534	22.45
509.99	22.55
510.445	23.67
510.901	20.45
511.356	21.44
511.812	21.53
512.267	21.35
512.722	22.03
513.178	22.35
513.633	21.83
514.089	20.28
514.544	22.54
514.999	22.2
515.454	22.37
515.91	21.08
516.365	22.88
516.82	23.7
517.275	21.6
517.73	22.97
518.185	22.72
518.64	22.16
519.095	21.56
519.55	20.78
520.005	22.36
520.46	23.24
520.915	22.23
521.37	22.57
521.825	22.04
522.28	21.26
522.734	21.98
523.189	20.53
523.644	22.61
524.099	21.71
524.553	23.07
525.008	21.62
525.462	22.13
525.917	23.02
526.372	22.17
526.826	25.56
527.281	24.04
527.735	21.71
528.19	23.16
528.644	23.1
529.098	21.49
529.553	23.07
530.007	22.03
530.461	21.88
530.916	24.37
531.37	22.61
531.824	23.74
532.278	22.57
532.732	23.21
533.186	23.33
533.641	22.29
534.095	22.14
534.549	21.16
535.003	21.72
535.457	23.45
535.911	21.47
536.365	24.27
536.818	23.79
537.272	24.74
537.726	22.94
538.18	20.84
538.634	24.8
539.087	21.43
539.541	23.51
539.995	24.3
540.449	25.95
540.902	22.44
541.356	23.2
541.809	25.82
542.263	22.4
542.716	24.35
543.17	23.55
543.623	26.12
544.077	24.36
544.53	23.85
544.984	22.09
545.437	24.12
545.89	24.34
546.344	24.99
546.797	22.45
547.25	24.56
547.703	24.73
548.157	24.91
548.61	22.38
549.063	22.93
549.516	23.96
549.969	24.79
550.422	22.49
550.875	23.27
551.328	24.92
551.781	23.52
552.234	24.04
552.687	24.44
553.14	22.69
553.592	24.43
554.045	23.35
554.498	23.82
554.951	24.51
555.404	24.14
555.856	24.21
556.309	23.46
556.762	25.99
557.214	26.25
557.667	26.3
558.119	27.48
558.572	25.73
559.024	27.68
559.477	25.54
559.929	25.48
560.382	24.67
560.834	24.95
561.286	22.01
561.739	27.62
562.191	23.84
562.643	25.29
563.095	27.44
563.548	24.69
564	25.05
564.452	26.06
564.904	27.24
565.356	26.66
565.808	26.93
566.26	27.13
566.712	26.62
567.164	27.01
567.616	24.51
568.068	26.16
568.52	24.89
568.972	25.07
569.424	26.91
569.876	25.32
570.327	25.47
570.779	26.25
571.231	24.24
571.682	25.91
572.134	25.12
572.586	26.83
573.037	26
573.489	26.31
573.941	26.07
574.392	26.97
574.844	26.25
575.295	27.32
575.746	24.12
576.198	25.5
576.649	27.78
577.101	27.4
577.552	26.56
578.003	26.67
578.454	25.71
578.906	26.67
579.357	25.84
579.808	25.88
580.259	26.26
580.71	25.75
581.161	26.78
581.612	26.5
582.064	26.22
582.515	26.75
582.965	25.93
583.416	26.21
583.867	28.6
584.318	26.35
584.769	28.4
585.22	26
585.671	26.61
586.122	27.16
586.572	28.87
587.023	26.51
587.474	28.34
587.924	27.3
588.375	27.77
588.826	26.33
589.276	27.11
589.727	26.41
590.177	26.81
590.628	28.51
591.078	29.18
591.529	27.56
591.979	29.3
592.429	27.83
592.88	26.49
593.33	30.15
593.78	27.35
594.231	27.29
594.681	27.26
595.131	29.34
595.581	29.76
596.031	27.14
596.481	28.13
596.932	27.14
597.382	28.88
597.832	28.6
598.282	27.69
598.732	26.94
599.182	28.62
599.632	28.39
600.081	28.57
600.531	29.21
600.981	29.48
601.431	28.49
601.881	27.72
602.33	29.17
602.78	28.26
603.23	28.31
603.679	29.43
604.129	27.47
604.579	27.83
605.028	28.27
605.478	27.16
605.927	29.06
606.377	25.51
606.826	28.47
607.276	28.63
607.725	28.24
608.175	27.72
608.624	27.69
609.073	27.72
609.522	27.3
609.972	27.26
610.421	28.63
610.87	28.52
611.319	29.01
611.768	28.82
612.218	29.51
612.667	27.91
613.116	28.31
613.565	28.38
614.014	27.9
614.463	29.09
614.912	29.29
615.361	28.37
615.81	30.21
616.258	29.03
616.707	29.83
617.156	30.52
617.605	29.54
618.054	29.1
618.502	29.13
618.951	28.34
619.4	29.8
619.848	29.41
620.297	29.33
620.745	28.99
621.194	28.29
621.642	30.15
622.091	29.52
622.539	29.22
622.988	29.41
623.436	28.18
623.885	28.19
624.333	28.3
624.781	28.98
625.23	30.51
625.678	28.84
626.126	28.9
626.574	28.66
627.022	29.12
627.471	28.61
627.919	29.89
628.367	29.03
628.815	29.62
629.263	29.78
629.711	30.17
630.159	28.61
630.607	28.78
631.055	30.14
631.503	30.27
631.95	29.85
632.398	29.69
632.846	29.03
633.294	30.24
633.742	29.67
634.189	28.44
634.637	30.89
635.085	30.04
635.532	28.39
635.98	29.11
636.427	29.92
636.875	31.36
637.323	29.41
637.77	28.45
638.217	29.08
638.665	29.8
639.112	29.38
639.56	29.31
640.007	30.63
640.454	29.18
640.902	30.56
641.349	30.04
641.796	29.18
642.243	30.11
642.69	29.81
643.138	29.81
643.585	30.89
644.032	29.19
644.479	28.84
644.926	28.94
645.373	30.46
645.82	30.96
646.267	30.65
646.714	29.86
647.161	29.65
647.607	30.01
648.054	30.52
648.501	30.43
648.948	30.23
649.395	30.25
649.841	29.49
650.288	31.34
650.735	30.82
651.181	29.49
651.628	30.01
652.075	28.61
652.521	29.81
652.968	29.22
653.414	31.08
653.861	30.44
654.307	31.12
654.753	30.14
655.2	30.16
655.646	30.25
656.092	29.67
656.539	30.26
656.985	30.16
657.431	29.69
657.877	30.33
658.324	30.97
658.77	30.32
659.216	29.84
659.662	30.14
660.108	30.32
660.554	30.42
661	29.86
661.446	28.96
661.892	30.89
662.338	30.29
662.784	30.23
663.23	30.16
663.675	29.19
664.121	30.8
664.567	30.31
665.013	30.76
665.458	31.39
665.904	30.82
666.35	31.3
666.795	30.26
667.241	31.5
667.687	29.93
668.132	29.7
668.578	30
669.023	30.71
669.469	31.98
669.914	30.76
670.359	29.73
670.805	30.23
671.25	30.97
671.695	31.02
672.141	30.28
672.586	31.87
673.031	30.11
673.476	30.28
673.922	31.21
674.367	30.35
674.812	30.23
675.257	29.95
675.702	31.04
676.147	31.46
676.592	30.86
677.037	30.03
677.482	30.34
677.927	32.4
678.372	32.63
678.817	30.32
679.261	30.69
679.706	31.4
680.151	30.73
680.596	31.18
681.04	30.52
681.485	31.09
681.93	32.49
682.374	31.84
682.819	30.49
683.264	30.47
683.708	31.77
684.153	31.17
684.597	31.92
685.042	31.04
685.486	30.16
685.93	31.73
686.375	31.02
686.819	30.92
687.263	31.07
687.708	31.38
688.152	31.6
688.596	32.57
689.04	31.46
689.485	31.58
689.929	31.63
690.373	31.95
690.817	31.06
691.261	31.5
691.705	30.83
692.149	31.66
692.593	31.63
693.037	31.1
693.481	32.74
693.925	30.98
694.369	31.29
694.812	31.33
695.256	32.96
695.7	31.59
696.144	32.33
696.587	29.79
697.031	32.17
697.475	30.21
697.918	31.65
698.362	31.11
698.806	31.42
699.249	30.88
699.693	31.27
700.136	30.92
700.58	31.54
701.023	31.07
701.466	32.23
701.91	32.33
702.353	30.93
702.796	30.77
703.24	31.42
703.683	31.54
704.126	30.88
704.569	31.38
705.013	31.13
705.456	31.16
705.899	31.26
706.342	31.87
706.785	31.74
707.228	32.32
707.671	30.63
708.114	31.02
708.557	32.1
709	30.91
709.443	30.35
709.886	31.12
710.328	31.2
710.771	32.9
711.214	32.11
711.657	31.99
712.099	31.21
712.542	32.02
712.985	31.3
713.427	32.82
713.87	32.54
714.313	31.55
714.755	32.64
715.198	31.81
715.64	31.72
716.083	31.43
716.525	32.06
716.967	31.75
717.41	32.36
717.852	32.11
718.295	30.53
718.737	32.06
719.179	32.37
719.621	31.12
720.063	31.56
720.506	31.88
720.948	32.84
721.39	31.74
721.832	31.47
722.274	32
722.716	31.15
723.158	31.85
723.6	30.5
724.042	32.2
724.484	31.79
724.926	32.18
725.368	31.88
725.81	31.99
726.251	32.03
726.693	32.36
727.135	32.1
727.577	31.97
728.018	31.66
728.46	32.77
728.902	31.67
729.343	30.97
729.785	32.65
730.226	32.28
730.668	32
731.109	31.3
731.551	31.44
731.992	32
732.434	32.75
732.875	31.35
733.316	33.23
733.758	31.91
734.199	31.15
734.64	32.07
735.081	33.2
735.523	31.91
735.964	32.78
736.405	32.84
736.846	32.4
737.287	31.96
737.728	32.23
738.169	31.85
738.61	32.3
739.051	32.75
739.492	33.23
739.933	32.49
740.374	31.93
740.815	31.72
741.256	31.39
741.696	32.93
742.137	32.81
742.578	32.75
743.019	31.66
743.459	32.89
743.9	33.4
744.341	32.17
744.781	31.8
745.222	33.11
745.662	31.74
746.103	32.41
746.543	32.23
746.984	33.02
747.424	32.9
747.865	32.88
748.305	33.56
748.745	31.94
749.186	31.77
749.626	32.53
750.066	33.22
750.506	33.1
750.947	32.8
751.387	33.03
751.827	33.02
752.267	32.82
752.707	32.64
753.147	32.73
753.587	33.46
754.027	32.39
754.467	33.77
754.907	32.78
755.347	32.83
755.787	32.91
756.227	33.3
756.667	32.67
757.107	33.31
757.546	33.52
757.986	32.78
758.426	32.55
758.865	31.86
759.305	33.55
759.745	33.32
760.184	33.22
760.624	33.32
761.063	34.04
761.503	32.49
761.943	33.35
762.382	33.4
762.821	33.19
763.261	32.21
763.7	33.05
764.14	34.33
764.579	33.55
765.018	32.49
765.457	33.05
765.897	34.26
766.336	32.64
766.775	33.53
767.214	32.9
767.653	32.56
768.092	33.03
768.531	32.58
768.97	33.72
769.409	32.62
769.848	34.52
770.287	33.01
770.726	33.22
771.165	33.09
771.604	33.12
772.043	32.95
772.482	33.46
772.92	33.12
773.359	33.76
773.798	33.25
774.237	32.75
774.675	33.77
775.114	33.94
775.553	33.42
775.991	34.59
776.43	34.63
776.868	33.01
777.307	34.01
777.745	33.44
778.184	33.53
778.622	33.77
779.06	34.07
779.499	33.61
779.937	33.23
780.375	34.6
780.814	33.43
781.252	34.12
781.69	33.84
782.128	33.48
782.566	33.33
783.004	33.23
783.443	34.75
783.881	34.83
784.319	33.71
784.757	34.51
785.195	33.72
785.633	34.35
786.071	33.44
786.508	34.31
786.946	33.01
787.384	33.51
787.822	33.33
788.26	34.38
788.697	33.49
789.135	33.92
789.573	33.73
790.011	33.71
790.448	33.82
790.886	34.17
791.323	33.44
791.761	33.9
792.198	34.35
792.636	33.36
793.073	33.97
793.511	33.89
793.948	35
794.386	33.99
794.823	34.33
795.26	34.33
795.698	33.87
796.135	34.3
796.572	34.17
797.009	34.31
797.446	34.43
797.884	35.04
798.321	34.01
798.758	35.28
799.195	33.97
799.632	34.68
800.069	33.83
800.506	34.92
800.943	34.3
801.38	35.23
801.817	33.97
802.254	33.88
802.69	33.74
803.127	34.3
803.564	33.73
804.001	34.16
804.438	34.99
804.874	34.06
805.311	34.23
805.748	34.76
806.184	34.05
806.621	35.35
807.057	34.64
807.494	35.52
807.93	34.72
808.367	34.08
808.803	35.25
809.24	34.61
809.676	34.64
810.112	34.99
810.549	34.46
810.985	35.02
811.421	34.64
811.857	34.7
812.294	33.91
812.73	34.55
813.166	35.25
813.602	35.11
814.038	34.72
814.474	34.99
814.91	35.03
815.346	34.54
815.782	34.01
816.218	35.67
816.654	34.81
817.09	36.04
817.526	34.85
817.962	34.5
818.398	35.26
818.833	35.58
819.269	35.39
819.705	35.69
820.141	35.14
820.576	35.48
821.012	35.28
821.447	35.21
821.883	35.09
822.319	35.23
822.754	36.25
823.19	35.17
823.625	35.13
824.061	35.06
824.496	34.91
824.931	35.33
825.367	35.23
825.802	36.22
826.237	35.52
826.673	35.12
827.108	35.33
827.543	35.41
827.978	35.19
828.413	36.22
828.849	34.81
829.284	35.5
829.719	35.51
830.154	35.29
830.589	37.01
831.024	35.77
831.459	35.91
831.894	35.66
832.329	35.55
832.763	35.96
833.198	35.53
833.633	35.29
834.068	35.38
834.503	35.53
834.937	35.21
835.372	35.35
835.807	35.71
836.241	35.61
836.676	35.79
837.111	35.09
837.545	36.47
837.98	35.46
838.414	35.69
838.849	35.98
839.283	36.3
839.717	36.02
840.152	35.83
840.586	35.97
841.021	36.21
841.455	35.76
841.889	36.57
842.323	35.04
842.758	35.39
843.192	35.98
843.626	35.89
844.06	36.02
844.494	36.48
844.928	36.65
845.362	35.97
845.796	35.85
846.23	36.16
846.664	35.73
847.098	36.78
847.532	36.73
847.966	36.11
848.4	36.02
848.834	36.85
849.267	36.2
849.701	36.06
850.135	35.78
850.569	36.56
851.002	35.57
851.436	36.93
851.87	36.05
852.303	36.76
852.737	36.82
853.17	36.33
853.604	36.22
854.037	35.84
854.471	36.04
854.904	36.92
855.337	36.51
855.771	36.7
856.204	36.42
856.637	36.28
857.071	36.11
857.504	36.37
857.937	36.05
858.37	37.05
858.804	36.52
859.237	37.04
859.67	37
860.103	36.78
860.536	37.17
860.969	37.13
861.402	37.95
861.835	36.19
862.268	36.85
862.701	37.17
863.134	36.74
863.566	37
863.999	37.78
864.432	36.94
864.865	35.9
865.298	37.73
865.73	35.92
866.163	37.38
866.596	36.35
867.028	37.56
867.461	36.35
867.893	37.08
868.326	37.4
868.758	36.12
869.191	37.12
869.623	36.82
870.056	36.98
870.488	36.69
870.92	36.77
871.353	37.2
871.785	36.89
872.217	36.92
872.65	36.72
873.082	37.95
873.514	38.07
873.946	37.27
874.378	37.75
874.81	37.14
875.243	36.52
875.675	37.35
876.107	37.55
876.539	37.76
876.971	37.1
877.403	37.35
877.834	37.3
878.266	36.6
878.698	37.42
879.13	37.72
879.562	37.17
879.994	37.38
880.425	37.35
880.857	36.93
881.289	38.02
881.72	38.21
882.152	38.14
882.584	35.99
883.015	37.09
883.447	38.07
883.878	37.6
884.31	37.75
884.741	38.12
885.173	38.35
885.604	38.18
886.035	36.82
886.467	38.23
886.898	37.84
887.329	37.69
887.76	37.76
888.192	37.4
888.623	37.82
889.054	38.08
889.485	37.96
889.916	37.95
890.347	37.77
890.778	37.65
891.209	37.94
891.64	37.54
892.071	36.98
892.502	37.99
892.933	37.8
893.364	37.81
893.795	38.02
894.226	38.86
894.657	37.34
895.087	37.76
895.518	38.1
895.949	37.51
896.38	38.03
896.81	38.19
897.241	38.26
897.671	38.43
898.102	38.12
898.533	38.38
898.963	38.29
899.394	38.64
899.824	37.79
900.254	38.19
900.685	37.83
901.115	38.64
901.546	38.87
901.976	38.59
902.406	38.03
902.836	38.12
903.267	38.74
903.697	37.93
904.127	38.62
904.557	38.38
904.987	37.74
905.417	37.52
905.847	38.72
906.277	38.41
906.707	38.84
907.137	38.66
907.567	38.14
907.997	38.4
908.427	38.54
908.857	38.52
909.287	38.16
909.717	39.44
910.146	38.93
910.576	38.91
911.006	39.22
911.436	38.81
911.865	38.53
912.295	39.09
912.724	38.78
913.154	38.7
913.584	39.04
914.013	38.47
914.443	38.74
914.872	38.66
915.302	38.53
915.731	38.62
916.16	39.1
916.59	39.24
917.019	39.14
917.448	38.88
917.878	39.29
918.307	38.23
918.736	38.85
919.165	38.56
919.594	38.41
920.023	39
920.452	39.59
920.882	38.7
921.311	38.87
921.74	38.44
922.169	38.77
922.597	39.63
923.026	39.11
923.455	38.89
923.884	38.96
924.313	39.08
924.742	39.15
925.171	38.59
925.599	39.52
926.028	39.14
926.457	38.99
926.885	38.59
927.314	38.69
927.743	38.87
928.171	39.51
928.6	39.61
929.028	38.65
929.457	39.33
929.885	39.06
930.314	39.9
930.742	39.29
931.17	39.08
931.599	39.13
932.027	39.36
932.455	39.54
932.884	38.53
933.312	38.86
933.74	39.5
934.168	38.43
934.596	39.23
935.025	39.49
935.453	40.33
935.881	39.36
936.309	38.83
936.737	38.69
937.165	38.83
937.593	39.5
938.021	39.07
938.449	38.73
938.876	39.14
939.304	39.52
939.732	39.29
940.16	39.82
940.588	38.88
941.015	39.32
941.443	39.75
941.871	39.24
942.298	38.33
942.726	38.88
943.154	39.97
943.581	39.9
944.009	40.03
944.436	39.2
944.864	40.05
945.291	39.69
945.718	39.12
946.146	39.87
946.573	39.88
947.001	38.88
947.428	38.91
947.855	40.09
948.282	39.57
948.71	40.24
949.137	39.72
949.564	39.25
949.991	39.19
950.418	39.54
950.845	39.48
951.272	39.34
951.699	39.9
952.126	39.78
952.553	40.46
952.98	39.2
953.407	39.52
953.834	39.45
954.261	39.52
954.688	39.88
955.114	39.84
955.541	39.25
955.968	39.82
956.395	40.17
956.821	39.08
957.248	40.31
957.674	40.09
958.101	39.65
958.528	40.12
958.954	39.62
959.381	39.46
959.807	39.29
960.234	40.33
960.66	39.52
961.086	39.27
961.513	39.77
961.939	40.11
962.365	40.07
962.792	39.28
963.218	40.44
963.644	40.11
964.07	40.08
964.496	39.94
964.923	40.19
965.349	39.89
965.775	40.21
966.201	40.01
966.627	40.17
967.053	39.53
967.479	40.01
967.905	40.14
968.331	40.1
968.756	40.12
969.182	39.9
969.608	39.8
970.034	39.64
970.46	40.03
970.885	40.64
971.311	40.76
971.737	40.57
972.162	40.22
972.588	40.67
973.014	39.65
973.439	40.71
973.865	40.07
974.29	40.2
974.716	40.38
975.141	40.29
975.567	39.95
975.992	40.24
976.417	40.52
976.843	40.09
977.268	40.45
977.693	40.48
978.119	40
978.544	40.12
978.969	40.26
979.394	40.34
979.819	40.49
980.244	40.35
980.669	40.45
981.095	39.69
981.52	40.36
981.945	40.44
982.369	40.85
982.794	40.39
983.219	40.69
983.644	40.2
984.069	40.61
984.494	40.54
984.919	40.06
985.343	40.34
985.768	40.6
986.193	40.77
986.618	40.13
987.042	40.43
987.467	40.5
987.891	40.95
988.316	40.29
988.741	40.37
989.165	40.3
989.59	40.48
990.014	40.66
990.438	40.72
990.863	40.74
991.287	40.39
991.712	40.36
992.136	40.51
992.56	40.61
992.984	40.47
993.409	41.19
993.833	40.56
994.257	40.68
994.681	40.52
995.105	40.65
995.529	40.6
995.953	41.21
996.377	41.3
996.801	40.7
997.225	41.03
997.649	40.99
998.073	40.82
998.497	41.51
998.921	41.39
999.345	40.95
999.769	40.8
1000.192	41.1
1000.616	40.6
1001.04	40.97
1001.464	40.62
1001.887	41.06
1002.311	41.16
1002.734	41.11
1003.158	41.16
1003.582	40.98
1004.005	41.19
1004.429	41.07
1004.852	41.19
1005.275	40.94
1005.699	40.85
1006.122	40.69
1006.546	41.16
1006.969	41.43
1007.392	41.07
1007.815	41.34
1008.239	40.89
1008.662	41.65
1009.085	40.89
1009.508	40.88
1009.931	40.89
1010.354	41.46
1010.778	40.85
1011.201	41.5
1011.624	40.65
1012.047	41.49
1012.469	41.44
1012.892	41.27
1013.315	41.08
1013.738	41.48
1014.161	41.89
1014.584	41.77
1015.007	40.91
1015.429	41.64
1015.852	41.54
1016.275	41.43
1016.697	41.52
1017.12	41.12
1017.543	40.96
1017.965	41.54
1018.388	41.53
1018.81	41.48
1019.233	41.13
1019.655	41.36
1020.078	41.47
1020.5	41.28
1020.922	41.44
1021.345	41.48
1021.767	41.78
1022.189	40.88
1022.612	41.53
1023.034	42.06
1023.456	41.47
1023.878	42.06
1024.301	41.55
1024.723	41.47
1025.145	42.53
1025.567	41.68
1025.989	41.76
1026.411	41.1
1026.833	42.02
1027.255	41.95
1027.677	41.7
1028.099	41.28
1028.52	41.53
1028.942	42.1
1029.364	41.25
1029.786	41.94
1030.208	42.18
1030.629	41.38
1031.051	41.7
1031.473	42.09
1031.894	41.82
1032.316	42.91
1032.738	41.49
1033.159	41.99
1033.581	41.42
1034.002	41.07
1034.424	41.13
1034.845	42.92
1035.267	42.06
1035.688	42.16
1036.109	41.78
1036.531	41.6
1036.952	41.85
1037.373	41.35
1037.794	41.48
1038.216	42.05
1038.637	41.64
1039.058	41.52
1039.479	41.8
1039.9	42.64
1040.321	42.79
1040.742	42.16
1041.163	41.64
1041.584	42.33
1042.005	41.76
1042.426	42.1
1042.847	42.15
1043.268	41.43
1043.689	42.22
1044.11	41.98
1044.53	41.39
1044.951	42.74
1045.372	41.88
1045.793	42.69
1046.213	41.66
1046.634	42.7
1047.055	42.48
1047.475	42.03
1047.896	41.56
1048.316	43.21
1048.737	42.35
1049.157	42.25
1049.578	41.95
1049.998	42.36
1050.419	41.68
1050.839	43.07
1051.259	43.21
1051.68	42.48
1052.1	42.57
1052.52	43.05
1052.94	41.88
1053.361	42.45
1053.781	42.02
1054.201	41.77
1054.621	41.8
1055.041	43.17
1055.461	41.97
1055.881	41.95
1056.301	41.97
1056.721	42.74
1057.141	42.06
1057.561	41.92
1057.981	43.1
1058.401	41.44
1058.82	41.91
1059.24	42.02
1059.66	41.72
1060.08	42.17
1060.499	42.28
1060.919	42.57
1061.339	41.61
1061.758	41.54
1062.178	41.68
1062.598	42.55
1063.017	42.09
1063.437	41.59
1063.856	43.59
1064.276	42.15
1064.695	41.46
1065.114	42.83
1065.534	41.37
1065.953	42.18
1066.372	43.22
1066.792	44.32
1067.211	43.08
1067.63	43.22
1068.049	42.24
1068.469	42.27
1068.888	42.15
1069.307	42.19
1069.726	42.85
1070.145	41.8
1070.564	42.82
1070.983	42.61
1071.402	43.47
1071.821	41.66
1072.24	42.09
1072.659	42.29
1073.078	41.5
1073.496	41.92
1073.915	41.55
1074.334	41.62
1074.753	40.83
1075.171	43.91
1075.59	42.88
1076.009	42.67
1076.427	41.35
1076.846	43.76
1077.265	41.34
1077.683	41.59
1078.102	42.81
1078.52	41.31
1078.939	42.55
1079.357	42.43
1079.776	42.7
1080.194	42.99
1080.612	42.43
1081.031	43.49
1081.449	42.34
1081.867	39.16
1082.285	42.47
1082.704	44.27
1083.122	42.22
1083.54	41.69
1083.958	42.32
1084.376	41.9
1084.794	40.38
1085.212	40.95
1085.63	42.98
1086.048	41.24
1086.466	44.55
1086.884	44.25
1087.302	41.07
1087.72	43.46
1088.138	42.85
1088.555	42.08
1088.973	42.25
1089.391	43.63
1089.809	42.12
1090.226	42.96
1090.644	41.85
1091.062	42.81
1091.479	42.03
1091.897	42.88
1092.314	43.09
1092.732	40.72
1093.15	41.78
1093.567	42.45
1093.984	43.23
1094.402	43.24
1094.819	40.09
1095.237	41.89
1095.654	42.85
1096.071	41.17
1096.488	40.7
1096.906	39.38
1097.323	40.89
1097.74	42.39
1098.157	42.09
1098.574	42.86
1098.991	42.11
1099.409	41.89
1099.826	39.55
1100.243	43.24
1100.66	40.92
1101.077	41.77
1101.494	42.31
1101.91	43.19
1102.327	42.31
1102.744	40.89
1103.161	40.49
1103.578	42.43
1103.994	42.1
1104.411	40.06
1104.828	42.75
1105.245	41.71
1105.661	40.8
1106.078	43.06
1106.494	40.85
1106.911	43.39
1107.328	39.78
1107.744	42.87
1108.161	39.39
1108.577	40.84
1108.993	38.27
1109.41	41.45
1109.826	40.7
1110.242	40.9
1110.659	42.69
1111.075	45.68
1111.491	41.05
1111.908	38.21
1112.324	39.68
1112.74	30.73
1113.156	42.28
1113.572	42.43
1113.988	40.41
1114.404	43.46
1114.82	45.06
1115.236	37.14
1115.652	38.94
1116.068	39.23
1116.484	43.65
1116.9	34.96
1117.316	42.19
1117.732	-42.86
1118.147	100
1118.563	9.09
1118.979	-33.33
