Data from JCR0014_SupralabialBlack_Reflection_00001.txt Node
Date: Thu Jul 23 15:03:00 ACST 2020
User: Stacey Dix
Spectrometer: MAYP113282
Scans to average: 1
Trigger mode: 0
Integration Time (sec): 1.000000E-1
Electric dark correction enabled: true
Boxcar width: 0
XAxis mode: Wavelengths
Number of Pixels in Spectrum: 2068
>>>>>Begin Spectral Data<<<<<
198.791	-866.67
199.266	866.67
199.74	76.19
200.215	-161.9
200.69	16.06
201.164	31.11
201.639	38.5
202.114	43.5
202.588	31.28
203.063	20.55
203.537	-8.6
204.012	8.24
204.486	34.05
204.961	68.2
205.435	9.21
205.909	3.51
206.384	58.05
206.858	19.93
207.332	11.59
207.807	7.26
208.281	43.31
208.755	15.62
209.229	8.65
209.703	42.64
210.177	25.07
210.651	15.57
211.126	16.09
211.6	2.43
212.074	16.09
212.548	65.62
213.021	22.22
213.495	31.98
213.969	-5.6
214.443	1.03
214.917	29.31
215.391	41.03
215.864	15.98
216.338	22.59
216.812	30.74
217.286	10.61
217.759	26.85
218.233	20.51
218.706	8.86
219.18	34.05
219.654	1.68
220.127	34.91
220.6	21.81
221.074	13.54
221.547	10.1
222.021	23.95
222.494	13.8
222.967	15.64
223.441	10.85
223.914	3.84
224.387	10.58
224.86	14.12
225.334	20.56
225.807	17.22
226.28	13
226.753	21.93
227.226	14.64
227.699	18.03
228.172	1.7
228.645	12.83
229.118	13.54
229.591	10.56
230.064	16.53
230.537	17.15
231.01	9.48
231.482	16.64
231.955	-1.01
232.428	6.04
232.901	5.82
233.373	9.28
233.846	12.1
234.319	4.29
234.791	12.16
235.264	14.78
235.736	6.72
236.209	8.75
236.681	3.91
237.154	7.68
237.626	12.64
238.099	9.13
238.571	6.89
239.044	12.13
239.516	8.96
239.988	9.89
240.46	9.3
240.933	8.07
241.405	8.36
241.877	9.39
242.349	9.59
242.821	10.66
243.293	9.74
243.765	6.63
244.237	12.81
244.71	7.86
245.181	10.99
245.653	11.56
246.125	9.35
246.597	10.44
247.069	10.24
247.541	9.93
248.013	9
248.485	9.1
248.956	7.55
249.428	8.29
249.9	10.08
250.371	8
250.843	9.74
251.315	6.81
251.786	8.32
252.258	8.1
252.729	9.39
253.201	7.59
253.672	7.65
254.144	6.75
254.615	7.3
255.086	7.21
255.558	6.99
256.029	5.2
256.5	8.78
256.972	8.08
257.443	8.16
257.914	7.47
258.385	4.96
258.856	4.81
259.327	8.78
259.799	7.7
260.27	5.15
260.741	7.13
261.212	7.55
261.683	6.16
262.154	7.32
262.624	6.42
263.095	4.85
263.566	6.25
264.037	5.94
264.508	6.52
264.979	4.09
265.449	8.46
265.92	5.86
266.391	6.43
266.861	6.36
267.332	5.69
267.803	6.25
268.273	5.21
268.744	5.83
269.214	7.03
269.685	7.23
270.155	4.36
270.626	4.8
271.096	5.98
271.566	8.01
272.037	8.07
272.507	7.26
272.977	4.31
273.448	5.78
273.918	8.24
274.388	5.05
274.858	8.21
275.328	7.24
275.798	5.87
276.268	6.14
276.738	6.4
277.208	6.54
277.678	6.15
278.148	5.51
278.618	5.48
279.088	4.63
279.558	7.32
280.028	5.93
280.498	6.53
280.968	5.34
281.437	5.64
281.907	4.94
282.377	7.12
282.847	7.07
283.316	4.79
283.786	6.11
284.255	3.72
284.725	5.39
285.194	6.64
285.664	6.68
286.133	4.47
286.603	5.3
287.072	8.5
287.542	4.05
288.011	6.85
288.48	5.22
288.95	6.04
289.419	6.52
289.888	6.36
290.357	6.34
290.827	5.6
291.296	5.58
291.765	6.44
292.234	5.4
292.703	6.81
293.172	7.64
293.641	5.93
294.11	5.46
294.579	6.2
295.048	5.19
295.517	5.1
295.986	7.06
296.455	5.55
296.923	5.55
297.392	6.56
297.861	7.06
298.33	5.49
298.798	5.36
299.267	6.81
299.736	7.32
300.204	6.64
300.673	7.45
301.141	7.26
301.61	6.31
302.079	8.03
302.547	5.31
303.015	7.28
303.484	6.11
303.952	6.37
304.421	7.64
304.889	4.8
305.357	9.03
305.825	6
306.294	6.53
306.762	6.66
307.23	5.16
307.698	6.41
308.166	5.84
308.634	6.68
309.103	5.28
309.571	5.99
310.039	8.16
310.507	6.39
310.975	5.68
311.442	7.38
311.91	7.82
312.378	6.68
312.846	5.58
313.314	6.83
313.782	6.99
314.249	5.53
314.717	6.01
315.185	8.28
315.652	7.59
316.12	8.06
316.588	8.09
317.055	7.18
317.523	7.28
317.99	9.07
318.458	9.86
318.925	6.52
319.393	7.16
319.86	6.52
320.328	8.19
320.795	8.71
321.262	7.18
321.73	8.49
322.197	7.09
322.664	6.49
323.131	6.81
323.598	8.69
324.066	9.6
324.533	10.62
325	9.99
325.467	10.46
325.934	9.78
326.401	12.32
326.868	12.23
327.335	11.28
327.802	10.42
328.269	11.85
328.735	13.21
329.202	13.76
329.669	14.91
330.136	15.56
330.603	12.94
331.069	17.28
331.536	16.1
332.003	17.85
332.469	19.43
332.936	17.6
333.402	18.39
333.869	20.61
334.336	21
334.802	20.11
335.268	20.93
335.735	22.36
336.201	19.94
336.668	22.18
337.134	23.45
337.6	22.35
338.067	21.89
338.533	22.85
338.999	21.55
339.465	24.37
339.931	21.73
340.398	22.47
340.864	21.93
341.33	22.46
341.796	22.51
342.262	24.04
342.728	24.25
343.194	22.94
343.66	23.5
344.126	22.71
344.592	21.76
345.057	22.87
345.523	22.75
345.989	22.05
346.455	24.67
346.921	21.76
347.386	23.92
347.852	22.4
348.318	22.1
348.783	22.32
349.249	22.82
349.714	21.96
350.18	22.26
350.645	24.6
351.111	22.61
351.576	20.68
352.042	23.26
352.507	21.12
352.973	22.21
353.438	21.51
353.903	21.69
354.369	22.07
354.834	21.94
355.299	21.46
355.764	21.86
356.229	20.31
356.695	21.93
357.16	22.73
357.625	21.73
358.09	22.13
358.555	22.96
359.02	23.9
359.485	21.85
359.95	20.28
360.415	23.2
360.879	22.29
361.344	21.41
361.809	22.01
362.274	23.31
362.739	19.44
363.203	25.85
363.668	21.66
364.133	18.53
364.597	21.19
365.062	21.77
365.527	20.93
365.991	18.6
366.456	19.82
366.92	20.4
367.385	21.14
367.849	21.07
368.314	21.32
368.778	21.18
369.242	21.71
369.707	20.93
370.171	21.6
370.635	20.34
371.1	22.14
371.564	20.82
372.028	21.38
372.492	22.88
372.956	18.72
373.42	21.78
373.884	21.2
374.348	20.49
374.812	20.92
375.276	21.54
375.74	20.76
376.204	21.16
376.668	21
377.132	21.22
377.596	21.61
378.06	19.71
378.524	21.32
378.987	20.09
379.451	19.96
379.915	21.03
380.378	21.05
380.842	20.87
381.306	20.34
381.769	18.33
382.233	17.68
382.696	20.8
383.16	19.4
383.623	20.67
384.087	19.81
384.55	20.05
385.014	18.02
385.477	19.97
385.94	20.51
386.404	19.76
386.867	19.08
387.33	19.6
387.793	18.9
388.256	20.43
388.72	16.8
389.183	18.7
389.646	19.81
390.109	19.37
390.572	19.86
391.035	18.73
391.498	19.4
391.961	17.9
392.424	20.38
392.887	18.12
393.35	19.47
393.812	20.49
394.275	18.75
394.738	19.4
395.201	18.22
395.664	18.24
396.126	19.35
396.589	19.07
397.052	18.71
397.514	18.92
397.977	17.43
398.439	18.84
398.902	21.08
399.364	19.88
399.827	17.68
400.289	19.04
400.752	18.03
401.214	18.93
401.676	17.05
402.139	16.2
402.601	18.7
403.063	17.77
403.525	17.52
403.988	17.07
404.45	18.41
404.912	16.95
405.374	17.16
405.836	15.36
406.298	16.55
406.76	17.27
407.222	16.41
407.684	17.16
408.146	17.38
408.608	15.15
409.07	18.03
409.532	16.45
409.994	15.37
410.456	16.64
410.917	15.22
411.379	16.66
411.841	15.46
412.303	16.37
412.764	16.31
413.226	15.21
413.687	16.07
414.149	17.01
414.611	15.16
415.072	16.53
415.534	16.11
415.995	15.48
416.457	16.91
416.918	16.89
417.379	16.4
417.841	18.08
418.302	16.83
418.763	16.45
419.225	15.83
419.686	15.64
420.147	16.08
420.608	16.02
421.069	17.09
421.53	16.27
421.991	16
422.453	17.35
422.914	16.84
423.375	16.55
423.836	16.84
424.297	16.38
424.757	17.77
425.218	17.26
425.679	15.89
426.14	18.16
426.601	17.78
427.062	15.93
427.522	16.56
427.983	17.05
428.444	16.18
428.904	18.22
429.365	17.9
429.826	17.57
430.286	14.58
430.747	16.71
431.207	16.76
431.668	18.18
432.128	16.93
432.589	20.02
433.049	15.82
433.509	17.84
433.97	17.28
434.43	18.42
434.89	17.31
435.351	17.94
435.811	17.05
436.271	19.45
436.731	17.91
437.191	19.37
437.651	16.81
438.112	16.63
438.572	18.94
439.032	20.56
439.492	18.08
439.952	19.01
440.412	17.69
440.871	17.81
441.331	19.73
441.791	18.55
442.251	18.17
442.711	18.86
443.171	17.58
443.63	19.49
444.09	20.44
444.55	18.2
445.009	20.45
445.469	15.22
445.929	16.53
446.388	18.71
446.848	20.55
447.307	17.76
447.767	16.54
448.226	17.21
448.686	14.18
449.145	18.07
449.604	19.33
450.064	19.1
450.523	18.28
450.982	17.84
451.442	19.69
451.901	18.61
452.36	19.52
452.819	19.68
453.278	19.21
453.737	18.9
454.197	19.08
454.656	17.87
455.115	20.03
455.574	15.84
456.033	19.98
456.492	19.4
456.95	19.41
457.409	18.06
457.868	19.24
458.327	19.65
458.786	17.27
459.245	16.9
459.703	19.89
460.162	19.15
460.621	19.34
461.079	18.07
461.538	18.97
461.997	20.15
462.455	16.69
462.914	16.02
463.372	18.3
463.831	17.21
464.289	18.07
464.748	20.38
465.206	19.38
465.664	21.66
466.123	21.22
466.581	16.66
467.039	20
467.497	20.4
467.956	17.03
468.414	21.16
468.872	16.98
469.33	18.46
469.788	16.49
470.246	16.62
470.704	18.46
471.162	17.04
471.62	21.6
472.078	21.14
472.536	19.23
472.994	17.63
473.452	18.53
473.91	19.09
474.368	18.8
474.826	16.8
475.283	20.19
475.741	16.57
476.199	20.24
476.656	17.96
477.114	17.65
477.572	21.96
478.029	17.92
478.487	18.25
478.944	17.78
479.402	17.58
479.859	17.52
480.317	18.7
480.774	19.63
481.232	17.54
481.689	17.63
482.146	18.38
482.604	20.27
483.061	17.85
483.518	22.01
483.975	18.35
484.433	16.57
484.89	19.41
485.347	21.54
485.804	19.95
486.261	19.17
486.718	19.29
487.175	15.6
487.632	20.55
488.089	20.64
488.546	17.48
489.003	19.67
489.46	16.96
489.917	21.58
490.373	18.82
490.83	19.5
491.287	19.79
491.744	18.61
492.2	18.22
492.657	19.2
493.114	19.36
493.57	19.01
494.027	22.57
494.484	17.55
494.94	16.59
495.397	22.18
495.853	20.42
496.31	19.38
496.766	16.81
497.222	19.63
497.679	21.27
498.135	20.82
498.591	18.16
499.048	18.89
499.504	19.51
499.96	19.83
500.416	22.66
500.872	19.22
501.329	18.67
501.785	20.19
502.241	19.29
502.697	21.06
503.153	17.85
503.609	20.31
504.065	16.87
504.521	19.26
504.977	20.11
505.432	20.32
505.888	20.19
506.344	21.94
506.8	18.35
507.256	20.83
507.711	21.87
508.167	18.93
508.623	23.77
509.078	20.6
509.534	20.07
509.99	23.82
510.445	20.54
510.901	20.05
511.356	23.29
511.812	21.62
512.267	22.14
512.722	20.45
513.178	19.21
513.633	22.23
514.089	20.06
514.544	21.93
514.999	20.92
515.454	20.76
515.91	21.93
516.365	21.46
516.82	22.09
517.275	19.65
517.73	21.34
518.185	21.46
518.64	21.27
519.095	21.65
519.55	22.77
520.005	22.37
520.46	21.23
520.915	22.61
521.37	21.86
521.825	19.65
522.28	21.2
522.734	23.87
523.189	21.57
523.644	21.8
524.099	19.6
524.553	22.71
525.008	21.34
525.462	20.6
525.917	22.3
526.372	20.66
526.826	21.11
527.281	22.6
527.735	19.55
528.19	23.25
528.644	23.64
529.098	21.73
529.553	21.93
530.007	22.79
530.461	23.14
530.916	22.56
531.37	22.31
531.824	23.26
532.278	23.14
532.732	22.91
533.186	24.88
533.641	21.34
534.095	23.68
534.549	24.68
535.003	22.85
535.457	22.98
535.911	21.24
536.365	22.49
536.818	23.47
537.272	22.39
537.726	21.99
538.18	21.36
538.634	22.95
539.087	23.63
539.541	23.27
539.995	23.57
540.449	21.46
540.902	22.45
541.356	22.44
541.809	23.72
542.263	20.92
542.716	22.13
543.17	22.72
543.623	22.02
544.077	21.86
544.53	26.39
544.984	23.39
545.437	21.99
545.89	24.03
546.344	23.2
546.797	24.98
547.25	22.12
547.703	23.93
548.157	24.06
548.61	22.92
549.063	20.6
549.516	21.81
549.969	24.81
550.422	21.24
550.875	23.28
551.328	22.37
551.781	23.54
552.234	23
552.687	23.79
553.14	22.92
553.592	26.1
554.045	23.97
554.498	23.69
554.951	24.73
555.404	26.13
555.856	25.58
556.309	25.78
556.762	25.14
557.214	26.07
557.667	24.83
558.119	27.1
558.572	24.76
559.024	27.37
559.477	24.18
559.929	24.11
560.382	24.08
560.834	24.66
561.286	23.66
561.739	25.02
562.191	23.96
562.643	25.77
563.095	25.12
563.548	23.88
564	23.61
564.452	26.24
564.904	24.53
565.356	24.52
565.808	25.24
566.26	25.94
566.712	24.98
567.164	26.8
567.616	23.89
568.068	23.92
568.52	24.28
568.972	24.45
569.424	26.3
569.876	26.48
570.327	24.25
570.779	26.15
571.231	23.46
571.682	26.32
572.134	25.44
572.586	26.43
573.037	25.35
573.489	25.28
573.941	26.69
574.392	25.76
574.844	24.72
575.295	25.68
575.746	24.53
576.198	25.65
576.649	25.66
577.101	25.94
577.552	25.98
578.003	25.86
578.454	25.97
578.906	25.73
579.357	25.51
579.808	27.58
580.259	24.99
580.71	26.68
581.161	25.61
581.612	26.21
582.064	26.32
582.515	27.2
582.965	25.99
583.416	25.14
583.867	26.38
584.318	24.23
584.769	26.17
585.22	25.57
585.671	26.48
586.122	25.27
586.572	26.93
587.023	26.62
587.474	28.3
587.924	25.4
588.375	26.88
588.826	25.74
589.276	25.85
589.727	27.01
590.177	25.98
590.628	29.47
591.078	29.04
591.529	27.62
591.979	26.91
592.429	27.34
592.88	27.09
593.33	27.3
593.78	27.01
594.231	26.51
594.681	27.77
595.131	27.56
595.581	28.32
596.031	27.45
596.481	27.64
596.932	26.34
597.382	26.23
597.832	27.12
598.282	28.24
598.732	27.94
599.182	28.14
599.632	27.72
600.081	28.87
600.531	28.49
600.981	28.06
601.431	27.24
601.881	27.68
602.33	27.12
602.78	27.79
603.23	28.09
603.679	28.44
604.129	27.2
604.579	26.44
605.028	27.52
605.478	28.7
605.927	28.78
606.377	26.6
606.826	27.98
607.276	27.08
607.725	26.98
608.175	26.46
608.624	27.13
609.073	26.4
609.522	27.61
609.972	27.19
610.421	29.08
610.87	27.64
611.319	28.25
611.768	27.1
612.218	28.37
612.667	27.62
613.116	27.2
613.565	27.19
614.014	27.46
614.463	28.08
614.912	27.02
615.361	27.42
615.81	27.51
616.258	28.16
616.707	27.85
617.156	27.04
617.605	28.27
618.054	29.14
618.502	27.65
618.951	28.73
619.4	28.56
619.848	28.58
620.297	29.07
620.745	28.24
621.194	27.64
621.642	28.85
622.091	29.31
622.539	27.27
622.988	27.6
623.436	27.29
623.885	27.52
624.333	27.95
624.781	28.35
625.23	28.08
625.678	27.56
626.126	28.39
626.574	29.37
627.022	27.88
627.471	28
627.919	28.9
628.367	27.38
628.815	28.73
629.263	28.65
629.711	29.5
630.159	29.58
630.607	28.42
631.055	29.79
631.503	28.32
631.95	28.44
632.398	29.27
632.846	27.87
633.294	29.47
633.742	28.24
634.189	28.48
634.637	28.08
635.085	29.06
635.532	27.73
635.98	29.65
636.427	28.09
636.875	29.45
637.323	28.34
637.77	28.76
638.217	29.18
638.665	28.27
639.112	29.66
639.56	28.29
640.007	28.71
640.454	28.94
640.902	29.39
641.349	29.7
641.796	28.11
642.243	28.39
642.69	27.84
643.138	28.57
643.585	29.87
644.032	28.36
644.479	29.03
644.926	28.55
645.373	30.41
645.82	30.15
646.267	29.79
646.714	28.44
647.161	29.41
647.607	28.9
648.054	29.18
648.501	30.53
648.948	29.48
649.395	28.52
649.841	28.48
650.288	29.93
650.735	29.09
651.181	28.3
651.628	28.51
652.075	29.05
652.521	29.93
652.968	29.28
653.414	29.28
653.861	30.09
654.307	28.95
654.753	31.1
655.2	29.76
655.646	28.34
656.092	28.35
656.539	28.44
656.985	29.08
657.431	29.35
657.877	29.06
658.324	28.9
658.77	29.76
659.216	28.63
659.662	29.39
660.108	30.15
660.554	28.83
661	28.8
661.446	28.67
661.892	29.59
662.338	30.58
662.784	28.39
663.23	29.64
663.675	29.96
664.121	29.19
664.567	30.43
665.013	29.5
665.458	29.43
665.904	30.45
666.35	29.37
666.795	29.16
667.241	29.94
667.687	30.44
668.132	29.78
668.578	28.31
669.023	29.93
669.469	30.43
669.914	30.99
670.359	29.4
670.805	29.34
671.25	29.24
671.695	30.19
672.141	29.54
672.586	29.88
673.031	30.21
673.476	29.45
673.922	30.43
674.367	30.08
674.812	29.42
675.257	28.13
675.702	29.89
676.147	30.54
676.592	30.26
677.037	30.01
677.482	30.58
677.927	31.39
678.372	30.54
678.817	29.23
679.261	30.67
679.706	30.13
680.151	30.61
680.596	30.41
681.04	31.09
681.485	29.68
681.93	30.93
682.374	29.97
682.819	29.32
683.264	29.72
683.708	30
684.153	30.12
684.597	31.2
685.042	30.38
685.486	29.7
685.93	30
686.375	30.46
686.819	29.94
687.263	30.31
687.708	30.2
688.152	29.76
688.596	30.14
689.04	31.08
689.485	29.97
689.929	31.21
690.373	29.74
690.817	29.44
691.261	31
691.705	29.43
692.149	30.09
692.593	31.25
693.037	30.86
693.481	31.2
693.925	29.12
694.369	30.75
694.812	30.41
695.256	30.54
695.7	30.61
696.144	30.43
696.587	29.83
697.031	30.06
697.475	29.23
697.918	31.49
698.362	29.96
698.806	31.58
699.249	29.87
699.693	30.2
700.136	29.86
700.58	30.53
701.023	30.76
701.466	30.71
701.91	30.74
702.353	31.23
702.796	30.49
703.24	31.66
703.683	30.19
704.126	31.43
704.569	30.78
705.013	30.62
705.456	30.48
705.899	30.69
706.342	30.96
706.785	30.67
707.228	31.61
707.671	29.43
708.114	30.79
708.557	29.99
709	30.17
709.443	30.39
709.886	29.98
710.328	30.37
710.771	30.38
711.214	30.42
711.657	31.39
712.099	31.12
712.542	30.59
712.985	30.7
713.427	30.76
713.87	30.58
714.313	31.79
714.755	31.17
715.198	30.88
715.64	29.7
716.083	30.59
716.525	31.52
716.967	30.73
717.41	31.83
717.852	31.48
718.295	30.69
718.737	30.08
719.179	32.27
719.621	32.36
720.063	31.24
720.506	31.27
720.948	30.42
721.39	30.25
721.832	30.26
722.274	31.5
722.716	30.43
723.158	30.69
723.6	30.67
724.042	31.65
724.484	31.32
724.926	31.69
725.368	30.48
725.81	31.95
726.251	31.16
726.693	30.99
727.135	31.55
727.577	31.61
728.018	32.05
728.46	31.23
728.902	31.06
729.343	30.38
729.785	31.42
730.226	31.02
730.668	31.19
731.109	30.13
731.551	31.23
731.992	31.6
732.434	31.1
732.875	30.46
733.316	32.51
733.758	30.7
734.199	30.94
734.64	31.12
735.081	31.75
735.523	30.51
735.964	31.81
736.405	30.84
736.846	30.51
737.287	29.82
737.728	31.2
738.169	30.54
738.61	32.28
739.051	30.87
739.492	31.31
739.933	31.33
740.374	30.81
740.815	31.22
741.256	30.74
741.696	32.1
742.137	32.07
742.578	32.37
743.019	31.72
743.459	31.83
743.9	30.53
744.341	31.47
744.781	31.7
745.222	30.53
745.662	30.98
746.103	31.08
746.543	31.08
746.984	31.34
747.424	30.84
747.865	31.57
748.305	31.37
748.745	31.22
749.186	30.24
749.626	32.62
750.066	32.07
750.506	32.45
750.947	32.27
751.387	32.33
751.827	32.47
752.267	32.07
752.707	32.52
753.147	30.87
753.587	31.96
754.027	32.01
754.467	32.56
754.907	31.5
755.347	31.27
755.787	31.78
756.227	31.9
756.667	31.94
757.107	31.47
757.546	32.11
757.986	31.88
758.426	32.44
758.865	31.25
759.305	32.25
759.745	32.35
760.184	31.95
760.624	31.86
761.063	32.27
761.503	31.94
761.943	31.94
762.382	32.2
762.821	32.28
763.261	31.67
763.7	32.77
764.14	32.77
764.579	33.5
765.018	32.1
765.457	31.77
765.897	31.89
766.336	31.45
766.775	32.48
767.214	31.36
767.653	30.01
768.092	31.3
768.531	32.24
768.97	31.8
769.409	31.93
769.848	31.25
770.287	32.94
770.726	32.92
771.165	32.81
771.604	31.3
772.043	31.91
772.482	32
772.92	31.74
773.359	32.81
773.798	31.87
774.237	32.58
774.675	32.51
775.114	32.01
775.553	32.23
775.991	32.42
776.43	32.62
776.868	32.81
777.307	31.68
777.745	33.38
778.184	32.46
778.622	32.65
779.06	33.01
779.499	32.06
779.937	32.39
780.375	32.3
780.814	32.31
781.252	31.75
781.69	33.2
782.128	33.32
782.566	31.44
783.004	31.67
783.443	33.11
783.881	32.42
784.319	32.73
784.757	32.81
785.195	33.45
785.633	32.87
786.071	33.06
786.508	32.52
786.946	33.44
787.384	33.45
787.822	32.91
788.26	32.28
788.697	32.2
789.135	33.72
789.573	33.11
790.011	33.16
790.448	33.45
790.886	32.08
791.323	32.47
791.761	33.13
792.198	32.46
792.636	31.98
793.073	33.12
793.511	31.92
793.948	33.08
794.386	33.26
794.823	33.24
795.26	33.14
795.698	33.1
796.135	32.96
796.572	33.59
797.009	33.47
797.446	32.7
797.884	33.44
798.321	32.75
798.758	33.32
799.195	32.79
799.632	33.1
800.069	32.56
800.506	33.34
800.943	32.46
801.38	32.85
801.817	33.06
802.254	33.54
802.69	33.58
803.127	33.74
803.564	32.71
804.001	33.64
804.438	33.47
804.874	33.87
805.311	33.26
805.748	33.85
806.184	33.5
806.621	33.4
807.057	34.23
807.494	33.6
807.93	33.77
808.367	33.31
808.803	33.93
809.24	33.28
809.676	32.23
810.112	33.58
810.549	32.7
810.985	33.62
811.421	33.81
811.857	33.53
812.294	33.45
812.73	33.25
813.166	33.5
813.602	34.72
814.038	33.66
814.474	33.38
814.91	33.85
815.346	33.99
815.782	33.37
816.218	33.76
816.654	33.49
817.09	33.84
817.526	32.94
817.962	34.07
818.398	34.24
818.833	33.52
819.269	34.29
819.705	34.04
820.141	33.47
820.576	33.85
821.012	33.48
821.447	33.44
821.883	33.99
822.319	33.78
822.754	34.27
823.19	33.99
823.625	33.8
824.061	34.27
824.496	34.07
824.931	33.25
825.367	34.94
825.802	34.06
826.237	34.27
826.673	34.84
827.108	33.9
827.543	34.1
827.978	34.31
828.413	34.08
828.849	34.81
829.284	33.79
829.719	34.53
830.154	33.96
830.589	34.11
831.024	33.88
831.459	34.12
831.894	33.08
832.329	34.02
832.763	33.79
833.198	32.94
833.633	33.99
834.068	33.69
834.503	35.09
834.937	34.44
835.372	34.67
835.807	33.83
836.241	33.76
836.676	34.39
837.111	33.54
837.545	34.25
837.98	34.18
838.414	33.96
838.849	34.26
839.283	34.26
839.717	34.72
840.152	34.52
840.586	34.96
841.021	34.59
841.455	35
841.889	35.78
842.323	34.88
842.758	34.85
843.192	34.17
843.626	35.51
844.06	35.57
844.494	35.22
844.928	34.5
845.362	34.87
845.796	34.76
846.23	34.91
846.664	34.64
847.098	34.82
847.532	34.8
847.966	34.62
848.4	34.39
848.834	35.07
849.267	34.1
849.701	34.35
850.135	34.35
850.569	34.4
851.002	34.99
851.436	34.49
851.87	35.03
852.303	35.5
852.737	34.48
853.17	35.09
853.604	35.26
854.037	34.91
854.471	34.86
854.904	35.16
855.337	34.39
855.771	35.44
856.204	34.27
856.637	35.16
857.071	35.44
857.504	35.82
857.937	34.93
858.37	35.7
858.804	35.27
859.237	36.24
859.67	34.98
860.103	34.91
860.536	35.68
860.969	35.23
861.402	35.51
861.835	34.88
862.268	35.14
862.701	35.09
863.134	35.14
863.566	35.51
863.999	36.63
864.432	35.4
864.865	34.78
865.298	36.2
865.73	34.88
866.163	34.73
866.596	35
867.028	35.81
867.461	35.12
867.893	35.5
868.326	35.04
868.758	34.81
869.191	35.4
869.623	35.69
870.056	35.88
870.488	35.68
870.92	35.52
871.353	35.64
871.785	35.49
872.217	36.11
872.65	35.62
873.082	35.85
873.514	35.36
873.946	36.25
874.378	35.99
874.81	35.16
875.243	35.38
875.675	35.35
876.107	35.49
876.539	36.07
876.971	36.29
877.403	35.82
877.834	36.75
878.266	35.42
878.698	35.71
879.13	36
879.562	35.67
879.994	35.61
880.425	36.02
880.857	35.79
881.289	36
881.72	36.47
882.152	35.75
882.584	35.11
883.015	35.35
883.447	36.7
883.878	36.2
884.31	36.47
884.741	36.4
885.173	36.31
885.604	35.85
886.035	36.08
886.467	35.68
886.898	36.48
887.329	36.57
887.76	36.1
888.192	36.18
888.623	35.87
889.054	36.42
889.485	35.46
889.916	35.88
890.347	36.69
890.778	36.14
891.209	35.89
891.64	36.5
892.071	36.21
892.502	36.38
892.933	36.75
893.364	35.97
893.795	36.79
894.226	36.19
894.657	36.19
895.087	37.21
895.518	36.73
895.949	36.7
896.38	36.19
896.81	36.88
897.241	36.6
897.671	36.49
898.102	36.36
898.533	36.29
898.963	36.34
899.394	35.91
899.824	36.66
900.254	35.99
900.685	36.44
901.115	36.65
901.546	36.29
901.976	36.78
902.406	37.07
902.836	36.53
903.267	36.81
903.697	36.58
904.127	36.99
904.557	36.32
904.987	36.6
905.417	36.07
905.847	36.5
906.277	36.37
906.707	36.66
907.137	36.77
907.567	36.74
907.997	37.07
908.427	36.19
908.857	37.48
909.287	36.27
909.717	36.61
910.146	36.86
910.576	37.24
911.006	36.06
911.436	36.26
911.865	36.99
912.295	37.39
912.724	36.42
913.154	36.44
913.584	37.73
914.013	36.57
914.443	37.19
914.872	37.03
915.302	37.06
915.731	36.59
916.16	36.83
916.59	36.45
917.019	37.99
917.448	38.03
917.878	36.93
918.307	37.61
918.736	36.72
919.165	37.02
919.594	36.57
920.023	37.59
920.452	36.87
920.882	37.47
921.311	37.43
921.74	36.76
922.169	36.82
922.597	37.05
923.026	37.32
923.455	37.79
923.884	36.96
924.313	37.79
924.742	37.84
925.171	36.62
925.599	37.78
926.028	37.39
926.457	36.75
926.885	37.38
927.314	37.78
927.743	37.18
928.171	37.99
928.6	37.56
929.028	37.5
929.457	37.88
929.885	37.1
930.314	37.16
930.742	36.86
931.17	37.22
931.599	37.79
932.027	37.11
932.455	37.27
932.884	37.29
933.312	37.84
933.74	37.95
934.168	37.31
934.596	37.12
935.025	37.02
935.453	38.83
935.881	37.85
936.309	36.8
936.737	37.4
937.165	38.03
937.593	38.1
938.021	37.27
938.449	37.93
938.876	37.92
939.304	37.38
939.732	37.37
940.16	37.1
940.588	37.6
941.015	37.77
941.443	37.73
941.871	37.23
942.298	37.28
942.726	37.24
943.154	37.36
943.581	37.39
944.009	37.4
944.436	37.88
944.864	37.92
945.291	38.08
945.718	37.77
946.146	37.85
946.573	38.28
947.001	37.27
947.428	37.83
947.855	38.62
948.282	38.18
948.71	37.64
949.137	37.34
949.564	37.76
949.991	37.71
950.418	37.31
950.845	37.75
951.272	37.77
951.699	37.6
952.126	38.06
952.553	37.92
952.98	37.38
953.407	37.7
953.834	37.66
954.261	37.55
954.688	38.4
955.114	38
955.541	37.71
955.968	38.01
956.395	38.2
956.821	37.69
957.248	37.63
957.674	38.15
958.101	37.3
958.528	38.35
958.954	38.37
959.381	38.35
959.807	37.86
960.234	38.21
960.66	37.96
961.086	38.29
961.513	38.23
961.939	37.9
962.365	38.23
962.792	37.99
963.218	38.13
963.644	37.99
964.07	37.48
964.496	37.8
964.923	38.05
965.349	38.06
965.775	38.31
966.201	38.25
966.627	38.1
967.053	37.81
967.479	37.63
967.905	38.02
968.331	38.24
968.756	37.77
969.182	38.11
969.608	37.93
970.034	37.96
970.46	37.87
970.885	38.76
971.311	38.28
971.737	38.36
972.162	38.76
972.588	38.46
973.014	38.6
973.439	38.04
973.865	38.16
974.29	38.36
974.716	38.35
975.141	38.09
975.567	38.55
975.992	38.68
976.417	38.53
976.843	38.52
977.268	38.27
977.693	38.3
978.119	38.42
978.544	38
978.969	38.12
979.394	38.21
979.819	38.72
980.244	37.91
980.669	38.31
981.095	38.18
981.52	38.4
981.945	37.88
982.369	39
982.794	38.53
983.219	38.32
983.644	38.33
984.069	38.08
984.494	38.57
984.919	38.51
985.343	38.42
985.768	38.45
986.193	38.94
986.618	38.32
987.042	38.72
987.467	38.4
987.891	38.97
988.316	38.59
988.741	39.05
989.165	38.4
989.59	38.45
990.014	38.72
990.438	38.39
990.863	38.16
991.287	38.55
991.712	38.65
992.136	38.38
992.56	38.96
992.984	38.55
993.409	39.11
993.833	38.27
994.257	38.39
994.681	38.95
995.105	38.81
995.529	38.88
995.953	39.17
996.377	39.43
996.801	38.5
997.225	38.88
997.649	38.83
998.073	39.29
998.497	39.03
998.921	38.75
999.345	38.81
999.769	38.89
1000.192	39
1000.616	38.58
1001.04	38.88
1001.464	38.77
1001.887	38.49
1002.311	39.59
1002.734	38.53
1003.158	38.84
1003.582	39.42
1004.005	38.99
1004.429	39.04
1004.852	38.88
1005.275	38.76
1005.699	39.52
1006.122	38.69
1006.546	38.21
1006.969	38.85
1007.392	38.45
1007.815	39.39
1008.239	38.65
1008.662	39.07
1009.085	38.8
1009.508	38.68
1009.931	38.97
1010.354	39.2
1010.778	38.81
1011.201	39.43
1011.624	39.51
1012.047	39.22
1012.469	39.07
1012.892	38.98
1013.315	39.32
1013.738	39.59
1014.161	39.89
1014.584	38.85
1015.007	39.14
1015.429	39.48
1015.852	38.77
1016.275	39.71
1016.697	39.23
1017.12	40.23
1017.543	38.83
1017.965	39.43
1018.388	39.55
1018.81	39.44
1019.233	38.94
1019.655	39.47
1020.078	39.32
1020.5	39.41
1020.922	39.25
1021.345	39.61
1021.767	40.07
1022.189	39.26
1022.612	38.92
1023.034	40.03
1023.456	39.48
1023.878	39.85
1024.301	39.21
1024.723	39.1
1025.145	40.75
1025.567	40.08
1025.989	40.26
1026.411	39.07
1026.833	40.49
1027.255	39.78
1027.677	39.52
1028.099	39.47
1028.52	39.48
1028.942	39.97
1029.364	39.32
1029.786	39.97
1030.208	39.96
1030.629	40.01
1031.051	39.51
1031.473	40.02
1031.894	39.22
1032.316	40.02
1032.738	39.94
1033.159	39.76
1033.581	40.37
1034.002	39.35
1034.424	39.26
1034.845	39.89
1035.267	39.96
1035.688	40.17
1036.109	39.46
1036.531	39.72
1036.952	39.98
1037.373	39.94
1037.794	39.25
1038.216	40.03
1038.637	39.87
1039.058	39.92
1039.479	40.18
1039.9	39.67
1040.321	39.95
1040.742	40.27
1041.163	39.97
1041.584	39.63
1042.005	39.48
1042.426	40.09
1042.847	39.92
1043.268	39.79
1043.689	39.78
1044.11	39.3
1044.53	40.07
1044.951	39.46
1045.372	40.63
1045.793	40.83
1046.213	39.73
1046.634	39.94
1047.055	39.29
1047.475	39.78
1047.896	39.93
1048.316	40.45
1048.737	40.04
1049.157	40.06
1049.578	40.06
1049.998	40.4
1050.419	40.65
1050.839	39.58
1051.259	41.36
1051.68	40.67
1052.1	40.64
1052.52	40.49
1052.94	40.18
1053.361	40.4
1053.781	40
1054.201	39.47
1054.621	40.57
1055.041	40.87
1055.461	40.46
1055.881	40.12
1056.301	39.89
1056.721	39.42
1057.141	39.62
1057.561	40.41
1057.981	39.51
1058.401	40.52
1058.82	40.2
1059.24	40.61
1059.66	39.6
1060.08	40.05
1060.499	39.87
1060.919	39.15
1061.339	39.48
1061.758	39.41
1062.178	40.4
1062.598	39.69
1063.017	40.03
1063.437	39.75
1063.856	40.6
1064.276	40.16
1064.695	39.09
1065.114	40.49
1065.534	39.57
1065.953	39.55
1066.372	40.4
1066.792	41.61
1067.211	40.53
1067.63	39.69
1068.049	39.41
1068.469	39.22
1068.888	39.92
1069.307	40.96
1069.726	40.36
1070.145	39.59
1070.564	39.76
1070.983	39.77
1071.402	43.09
1071.821	39.39
1072.24	40.29
1072.659	39.79
1073.078	40.74
1073.496	39.67
1073.915	40.6
1074.334	39.42
1074.753	38.95
1075.171	40.48
1075.59	40.24
1076.009	41.37
1076.427	40.06
1076.846	40.3
1077.265	38.91
1077.683	38.13
1078.102	41.24
1078.52	38.34
1078.939	40.13
1079.357	40.99
1079.776	41.49
1080.194	41.68
1080.612	38.96
1081.031	40.46
1081.449	39.81
1081.867	38.73
1082.285	40.21
1082.704	41.26
1083.122	39.69
1083.54	40.88
1083.958	39.47
1084.376	40.81
1084.794	39.84
1085.212	38.72
1085.63	40.22
1086.048	40.36
1086.466	39.72
1086.884	40.78
1087.302	39.11
1087.72	38.85
1088.138	38.25
1088.555	40.04
1088.973	40.25
1089.391	40.53
1089.809	40.3
1090.226	39.7
1090.644	41.94
1091.062	39.89
1091.479	40.99
1091.897	41.17
1092.314	41.97
1092.732	38.51
1093.15	40.95
1093.567	40.62
1093.984	41.76
1094.402	39.25
1094.819	39.67
1095.237	40.14
1095.654	40.13
1096.071	41.29
1096.488	41.22
1096.906	37.94
1097.323	40.84
1097.74	39.06
1098.157	42.51
1098.574	40.18
1098.991	39.95
1099.409	39.73
1099.826	41.16
1100.243	40.32
1100.66	40.02
1101.077	41.39
1101.494	39.56
1101.91	39.62
1102.327	40.15
1102.744	38.7
1103.161	39.3
1103.578	38.66
1103.994	41.79
1104.411	40.07
1104.828	40.34
1105.245	38.18
1105.661	38.28
1106.078	42.72
1106.494	38.04
1106.911	40.34
1107.328	37.57
1107.744	39.36
1108.161	39.3
1108.577	42.14
1108.993	35.49
1109.41	38.03
1109.826	41.52
1110.242	39.4
1110.659	39.91
1111.075	41.04
1111.491	40.44
1111.908	35.36
1112.324	42.34
1112.74	24.74
1113.156	40.76
1113.572	41.71
1113.988	42.96
1114.404	42.03
1114.82	41.14
1115.236	37.36
1115.652	38.97
1116.068	37.74
1116.484	40.42
1116.9	33.29
1117.316	45.16
1117.732	9.52
1118.147	-96.3
1118.563	60.61
1118.979	-7.41
