Data from JCR0014_SupralabialBlack_Reflection_00002.txt Node
Date: Thu Jul 23 15:03:01 ACST 2020
User: Stacey Dix
Spectrometer: MAYP113282
Scans to average: 1
Trigger mode: 0
Integration Time (sec): 1.000000E-1
Electric dark correction enabled: true
Boxcar width: 0
XAxis mode: Wavelengths
Number of Pixels in Spectrum: 2068
>>>>>Begin Spectral Data<<<<<
198.791	-1600
199.266	400
199.74	-57.14
200.215	-0
200.69	4.82
201.164	26.67
201.639	25.35
202.114	36.88
202.588	39.51
203.063	16.54
203.537	19.35
204.012	24.72
204.486	51.8
204.961	18.39
205.435	21.14
205.909	54.74
206.384	21.77
206.858	72.16
207.332	36.52
207.807	11.88
208.281	39.42
208.755	0
209.229	30.53
209.703	21.62
210.177	29.06
210.651	14.6
211.126	13.79
211.6	24.82
212.074	8.28
212.548	34.65
213.021	32.62
213.495	26.02
213.969	8.4
214.443	-18.6
214.917	35.46
215.391	4.73
215.864	18.71
216.338	25.14
216.812	20.36
217.286	29.85
217.759	15.38
218.233	19.58
218.706	31.21
219.18	30.9
219.654	1.01
220.127	12.88
220.6	22.12
221.074	19.16
221.547	8.66
222.021	19.05
222.494	22.91
222.967	0
223.441	9.3
223.914	4.07
224.387	10.79
224.86	16.2
225.334	13.26
225.807	16.22
226.28	7.09
226.753	27.37
227.226	11.93
227.699	14.45
228.172	22.27
228.645	8.5
229.118	13.66
229.591	13.77
230.064	16.31
230.537	7.7
231.01	5.52
231.482	13.51
231.955	-7.91
232.428	16.25
232.901	6.44
233.373	6.24
233.846	9.47
234.319	0
234.791	11.83
235.264	11.19
235.736	3.85
236.209	11.98
236.681	5.35
237.154	8.06
237.626	10.28
238.099	9.46
238.571	9.89
239.044	10.57
239.516	9.42
239.988	9.53
240.46	9.84
240.933	9.01
241.405	10.44
241.877	8.41
242.349	9.12
242.821	7.89
243.293	8.37
243.765	6.54
244.237	13.76
244.71	4.02
245.181	10.65
245.653	8.87
246.125	7.7
246.597	11.57
247.069	8.82
247.541	8.87
248.013	6.87
248.485	7.26
248.956	5.27
249.428	6.73
249.9	8.71
250.371	7.21
250.843	8.09
251.315	5.95
251.786	6.86
252.258	9.09
252.729	7.84
253.201	8.04
253.672	5.97
254.144	6.93
254.615	5.49
255.086	6.34
255.558	6.44
256.029	6.05
256.5	8.52
256.972	6.18
257.443	6.93
257.914	7.71
258.385	7.07
258.856	5.17
259.327	7.97
259.799	7.51
260.27	6.01
260.741	8.38
261.212	7.44
261.683	8.22
262.154	7.83
262.624	6.78
263.095	4.94
263.566	5.46
264.037	6.45
264.508	6.96
264.979	5.78
265.449	5.27
265.92	7.55
266.391	6.02
266.861	7.44
267.332	6.15
267.803	7.03
268.273	7.09
268.744	7.36
269.214	6.5
269.685	7.74
270.155	5.21
270.626	6.3
271.096	4.93
271.566	5.27
272.037	5.65
272.507	7.67
272.977	5.92
273.448	6.92
273.918	4.53
274.388	6.74
274.858	7.35
275.328	6.14
275.798	6.94
276.268	5.15
276.738	8.65
277.208	7.09
277.678	5.69
278.148	4.21
278.618	5.82
279.088	5.27
279.558	7.56
280.028	5.28
280.498	7.13
280.968	5.09
281.437	6.49
281.907	6.77
282.377	7.65
282.847	5.56
283.316	5.29
283.786	4.34
284.255	5.93
284.725	7.51
285.194	5.67
285.664	6.01
286.133	5.58
286.603	5.77
287.072	6.21
287.542	7.54
288.011	6.06
288.48	6.47
288.95	4.57
289.419	6.11
289.888	5.65
290.357	6.82
290.827	6.44
291.296	4.15
291.765	7.2
292.234	6.18
292.703	6.39
293.172	8.71
293.641	4.75
294.11	5.41
294.579	6.85
295.048	5.44
295.517	6.58
295.986	5.37
296.455	5.27
296.923	4.99
297.392	6.82
297.861	8.2
298.33	5.36
298.798	5.07
299.267	7.7
299.736	5.14
300.204	6.75
300.673	5.75
301.141	7.36
301.61	4.19
302.079	7.29
302.547	6.23
303.015	6.45
303.484	6.75
303.952	6.63
304.421	5.93
304.889	5.66
305.357	8.59
305.825	5.57
306.294	6.71
306.762	6.22
307.23	7.85
307.698	6.2
308.166	6.4
308.634	6.71
309.103	7.21
309.571	5.63
310.039	7.95
310.507	7.22
310.975	5.78
311.442	7.9
311.91	9.13
312.378	7.99
312.846	6.7
313.314	7.26
313.782	7.43
314.249	7.47
314.717	7.67
315.185	8.44
315.652	8.07
316.12	8.36
316.588	8.12
317.055	7.57
317.523	7.23
317.99	8.81
318.458	8.21
318.925	6.62
319.393	7.77
319.86	8.25
320.328	8.28
320.795	7.87
321.262	7.35
321.73	9.81
322.197	7.83
322.664	7.42
323.131	9.61
323.598	8.43
324.066	9.25
324.533	8.33
325	11.29
325.467	7.97
325.934	8.83
326.401	11.33
326.868	12.9
327.335	11.37
327.802	11.87
328.269	11.33
328.735	13.83
329.202	12.36
329.669	14.35
330.136	14.62
330.603	15.13
331.069	15.37
331.536	16.19
332.003	18.37
332.469	19.07
332.936	17.43
333.402	18.28
333.869	18.85
334.336	18.16
334.802	19.04
335.268	19.72
335.735	20.65
336.201	20.65
336.668	20.61
337.134	20.28
337.6	22.96
338.067	23.28
338.533	21.12
338.999	22.54
339.465	22.78
339.931	21.49
340.398	22.96
340.864	22.6
341.33	23.76
341.796	21.88
342.262	23.14
342.728	23.53
343.194	24.9
343.66	23.4
344.126	22.6
344.592	21.08
345.057	24.32
345.523	22.45
345.989	20.75
346.455	23.57
346.921	22.87
347.386	22.82
347.852	20.71
348.318	23.24
348.783	20.72
349.249	22.17
349.714	22.05
350.18	22.01
350.645	23.21
351.111	23.61
351.576	23.51
352.042	22.15
352.507	20.56
352.973	22.89
353.438	21.6
353.903	20.6
354.369	22.5
354.834	22.09
355.299	21.3
355.764	20.73
356.229	20.78
356.695	20.12
357.16	21.64
357.625	22.47
358.09	21.89
358.555	22.03
359.02	23.79
359.485	21.21
359.95	19.97
360.415	24.05
360.879	23.02
361.344	21.64
361.809	21.55
362.274	22.15
362.739	21.35
363.203	23.25
363.668	20.57
364.133	21.9
364.597	22.15
365.062	22.36
365.527	23.5
365.991	18.69
366.456	21.36
366.92	20.71
367.385	20.19
367.849	21.16
368.314	19.91
368.778	20.87
369.242	20.72
369.707	21.44
370.171	21.15
370.635	19.81
371.1	20.43
371.564	21.34
372.028	21.34
372.492	21.79
372.956	20.27
373.42	19.08
373.884	21.36
374.348	20.98
374.812	18.29
375.276	20.99
375.74	20.01
376.204	20.93
376.668	21.78
377.132	20.94
377.596	20.62
378.06	20.75
378.524	19.82
378.987	20.36
379.451	19.98
379.915	20.52
380.378	20.17
380.842	20.59
381.306	20.12
381.769	17.92
382.233	19.33
382.696	21.78
383.16	18.74
383.623	18.39
384.087	20.08
384.55	21.51
385.014	19.16
385.477	19.81
385.94	21.59
386.404	20.71
386.867	20.67
387.33	18.79
387.793	20.85
388.256	18.29
388.72	16.93
389.183	19.19
389.646	21.39
390.109	19.56
390.572	17.83
391.035	18.91
391.498	18.47
391.961	18.92
392.424	19.94
392.887	18.49
393.35	18.34
393.812	20.21
394.275	18.41
394.738	18.45
395.201	18.84
395.664	19.36
396.126	19.05
396.589	18.98
397.052	19.05
397.514	17.73
397.977	16.6
398.439	19.22
398.902	17.87
399.364	17.64
399.827	17.65
400.289	19.51
400.752	16.77
401.214	16.84
401.676	18.12
402.139	16.16
402.601	18.16
403.063	16.81
403.525	18.88
403.988	16.79
404.45	18.37
404.912	17.81
405.374	19.17
405.836	16.66
406.298	17.06
406.76	17.05
407.222	17.53
407.684	17.48
408.146	18.13
408.608	16.18
409.07	15.88
409.532	16.47
409.994	16.83
410.456	16.38
410.917	15.85
411.379	14.88
411.841	15.92
412.303	16.22
412.764	16
413.226	16.08
413.687	16.09
414.149	16.12
414.611	15.18
415.072	14.34
415.534	15.65
415.995	14.68
416.457	17.05
416.918	14.68
417.379	15.31
417.841	15.15
418.302	16.62
418.763	15.98
419.225	15.63
419.686	16.15
420.147	16.51
420.608	15.62
421.069	16.02
421.53	15.63
421.991	16.32
422.453	15.59
422.914	17.74
423.375	16.8
423.836	16.8
424.297	16.76
424.757	17.15
425.218	16.17
425.679	16.47
426.14	16.3
426.601	18.12
427.062	15.17
427.522	17.93
427.983	17.84
428.444	16.21
428.904	18.44
429.365	16.95
429.826	17.7
430.286	16.78
430.747	17.5
431.207	15.32
431.668	15.8
432.128	16.42
432.589	19.39
433.049	16.3
433.509	19.77
433.97	16.78
434.43	19.23
434.89	15.94
435.351	16.22
435.811	16.71
436.271	17.21
436.731	18.86
437.191	16.18
437.651	17.21
438.112	16.3
438.572	21.43
439.032	17.07
439.492	18.02
439.952	17.3
440.412	15.44
440.871	17.2
441.331	18.31
441.791	18.68
442.251	19.09
442.711	17.72
443.171	17.97
443.63	18.97
444.09	20.19
444.55	19.37
445.009	19.49
445.469	15.07
445.929	18.4
446.388	19.89
446.848	19.02
447.307	17.61
447.767	20.02
448.226	16.72
448.686	14.54
449.145	15.34
449.604	17.43
450.064	19.86
450.523	18.3
450.982	18.59
451.442	17.1
451.901	18.55
452.36	16.97
452.819	19.37
453.278	20.52
453.737	17.54
454.197	18.06
454.656	17.99
455.115	17.62
455.574	17.12
456.033	18.28
456.492	21.47
456.95	16.8
457.409	17.2
457.868	17.81
458.327	19.22
458.786	16.94
459.245	18.5
459.703	17.9
460.162	17.61
460.621	20.03
461.079	16.8
461.538	16.45
461.997	20.74
462.455	18.42
462.914	15.66
463.372	18.82
463.831	16.52
464.289	16.47
464.748	19.3
465.206	17.81
465.664	20.89
466.123	18.98
466.581	15.97
467.039	19.54
467.497	19.83
467.956	17.95
468.414	18.24
468.872	19.56
469.33	18.93
469.788	17.95
470.246	18.48
470.704	19.09
471.162	17.9
471.62	19.37
472.078	18.48
472.536	19.92
472.994	16.91
473.452	18.46
473.91	16.54
474.368	16.16
474.826	17.17
475.283	20.44
475.741	15.74
476.199	16.75
476.656	19.59
477.114	16.62
477.572	20.23
478.029	18.49
478.487	16.57
478.944	18.67
479.402	16.47
479.859	19.64
480.317	18.31
480.774	17.41
481.232	16.49
481.689	21.43
482.146	17.57
482.604	21.04
483.061	18.54
483.518	18.2
483.975	17.06
484.433	16.4
484.89	16.95
485.347	20.7
485.804	19.77
486.261	20.33
486.718	15.35
487.175	15.97
487.632	19.7
488.089	19.57
488.546	18.9
489.003	17.76
489.46	16.35
489.917	20.95
490.373	18.96
490.83	19.99
491.287	19.61
491.744	20.66
492.2	17.37
492.657	19.13
493.114	21.26
493.57	18.94
494.027	19.5
494.484	19.62
494.94	18.58
495.397	20.44
495.853	22.05
496.31	20.95
496.766	19.02
497.222	20.85
497.679	19.43
498.135	22.05
498.591	20.36
499.048	19.73
499.504	18.38
499.96	18.54
500.416	20.73
500.872	18.54
501.329	18.29
501.785	22.52
502.241	18.24
502.697	21.09
503.153	19.61
503.609	19.37
504.065	19.82
504.521	18.81
504.977	17.57
505.432	21.21
505.888	20.12
506.344	22.61
506.8	18.11
507.256	21.13
507.711	22.26
508.167	19.32
508.623	20.04
509.078	19.54
509.534	22.23
509.99	20.4
510.445	21.97
510.901	21.97
511.356	21.23
511.812	21.57
512.267	19.99
512.722	20.71
513.178	20.58
513.633	21.4
514.089	19.38
514.544	20.78
514.999	22.24
515.454	21.17
515.91	20.89
516.365	22.84
516.82	22.34
517.275	19.74
517.73	21.72
518.185	19.47
518.64	22.73
519.095	21.45
519.55	20.67
520.005	22.69
520.46	20.74
520.915	21.83
521.37	24.12
521.825	21.85
522.28	20.47
522.734	22.59
523.189	22.33
523.644	21.75
524.099	20.8
524.553	21.56
525.008	20.64
525.462	21.87
525.917	21.31
526.372	22.42
526.826	21.67
527.281	22.02
527.735	22.42
528.19	19.85
528.644	20.95
529.098	21.53
529.553	19.88
530.007	22.21
530.461	22
530.916	22.27
531.37	22.26
531.824	20.4
532.278	20.55
532.732	21.12
533.186	21.74
533.641	21.93
534.095	20.57
534.549	21.93
535.003	22.48
535.457	20.79
535.911	21.51
536.365	23
536.818	22.34
537.272	23.26
537.726	21.7
538.18	21.05
538.634	22.48
539.087	20.58
539.541	22.79
539.995	21.48
540.449	23.21
540.902	21.56
541.356	23.15
541.809	24.32
542.263	22.19
542.716	22.56
543.17	23.68
543.623	22.46
544.077	20.71
544.53	24.95
544.984	22.29
545.437	20.21
545.89	25.6
546.344	19.88
546.797	21.54
547.25	23.96
547.703	22.66
548.157	22.19
548.61	23.78
549.063	22.19
549.516	26.62
549.969	25.54
550.422	25.07
550.875	23.9
551.328	20.78
551.781	20.77
552.234	22.32
552.687	23.3
553.14	21.66
553.592	25.62
554.045	19.88
554.498	24.83
554.951	24.96
555.404	24.24
555.856	24.86
556.309	23.63
556.762	24.22
557.214	25.12
557.667	23.56
558.119	26.03
558.572	26.09
559.024	26.88
559.477	24.01
559.929	23.44
560.382	24.1
560.834	24.03
561.286	25.49
561.739	26.4
562.191	25.37
562.643	24.08
563.095	25.14
563.548	25.65
564	25.19
564.452	25.29
564.904	25.66
565.356	26.06
565.808	26.96
566.26	25.85
566.712	25.05
567.164	25.38
567.616	23.07
568.068	26.55
568.52	24.76
568.972	23.37
569.424	25.07
569.876	24.2
570.327	24.62
570.779	25.61
571.231	22.89
571.682	25.32
572.134	24.84
572.586	24.32
573.037	26.64
573.489	25.34
573.941	27.82
574.392	23.14
574.844	25.83
575.295	26.14
575.746	24.94
576.198	25.03
576.649	25.17
577.101	26.74
577.552	25.65
578.003	24.72
578.454	24.94
578.906	24.69
579.357	25.87
579.808	26.34
580.259	25.55
580.71	24.51
581.161	25.68
581.612	24.62
582.064	25.85
582.515	26.19
582.965	25.9
583.416	25.3
583.867	26.5
584.318	24.78
584.769	26.28
585.22	26.65
585.671	25.63
586.122	27.13
586.572	26.22
587.023	26.15
587.474	26.92
587.924	24.13
588.375	26.31
588.826	27.14
589.276	27.19
589.727	28.4
590.177	26.88
590.628	28.69
591.078	28.04
591.529	25.45
591.979	28.21
592.429	27.8
592.88	26.47
593.33	28.42
593.78	27.18
594.231	26.68
594.681	27.99
595.131	26.47
595.581	27.29
596.031	27.56
596.481	27.01
596.932	27.07
597.382	27.77
597.832	27.47
598.282	28.06
598.732	26.44
599.182	28.15
599.632	27.84
600.081	27.93
600.531	27.33
600.981	26.64
601.431	27.11
601.881	27.5
602.33	27.18
602.78	25.02
603.23	26.51
603.679	28.93
604.129	25.27
604.579	26.5
605.028	27.12
605.478	26.95
605.927	28.89
606.377	26.12
606.826	28.31
607.276	27.47
607.725	28.58
608.175	27.92
608.624	25.97
609.073	28.36
609.522	27.63
609.972	26.07
610.421	29.18
610.87	27.04
611.319	27.58
611.768	26.99
612.218	29.02
612.667	27.29
613.116	28.92
613.565	27.62
614.014	26.66
614.463	27.32
614.912	27.11
615.361	27.95
615.81	28.22
616.258	28.73
616.707	29.97
617.156	29.27
617.605	27.73
618.054	28.85
618.502	27.15
618.951	28.51
619.4	27.92
619.848	28.93
620.297	29.01
620.745	28.86
621.194	26.69
621.642	29.05
622.091	28.47
622.539	29.13
622.988	27.37
623.436	28.81
623.885	28
624.333	28.46
624.781	28.33
625.23	28.38
625.678	27.09
626.126	29.26
626.574	29.27
627.022	28.16
627.471	28.08
627.919	27.98
628.367	27.49
628.815	28.1
629.263	29.16
629.711	29.41
630.159	27.77
630.607	29.19
631.055	28.16
631.503	27.5
631.95	28.45
632.398	28.54
632.846	28.14
633.294	28.38
633.742	29.02
634.189	28.08
634.637	29.18
635.085	30.08
635.532	28.5
635.98	28.72
636.427	29.18
636.875	28.43
637.323	27.48
637.77	28.01
638.217	29.4
638.665	28.87
639.112	29
639.56	28.98
640.007	29
640.454	29.26
640.902	29.01
641.349	28.67
641.796	28.92
642.243	28.86
642.69	28.76
643.138	28.55
643.585	30.99
644.032	27.18
644.479	29.31
644.926	28.62
645.373	29.94
645.82	29.86
646.267	29.22
646.714	29.23
647.161	29.25
647.607	28.76
648.054	28.52
648.501	29.7
648.948	29.84
649.395	27.9
649.841	29.45
650.288	29.64
650.735	29.31
651.181	28.92
651.628	29.23
652.075	28.85
652.521	29.47
652.968	27.85
653.414	29.29
653.861	30.69
654.307	28.7
654.753	29.43
655.2	29.8
655.646	28.8
656.092	28.61
656.539	28.43
656.985	29.37
657.431	29.9
657.877	29.16
658.324	30.33
658.77	29.38
659.216	29.12
659.662	29.2
660.108	28.97
660.554	30.01
661	30.56
661.446	28.43
661.892	30.07
662.338	30.11
662.784	28.31
663.23	29.27
663.675	30.67
664.121	28.98
664.567	29.61
665.013	29.3
665.458	29.6
665.904	30.62
666.35	29.83
666.795	29.38
667.241	29.77
667.687	29.32
668.132	30.58
668.578	28.65
669.023	29.76
669.469	29.61
669.914	30.74
670.359	29.85
670.805	29.14
671.25	30.05
671.695	29.01
672.141	29.59
672.586	29.94
673.031	30.72
673.476	29.64
673.922	28.75
674.367	29.7
674.812	29.75
675.257	30.18
675.702	29.82
676.147	30.5
676.592	30.49
677.037	30.38
677.482	30.54
677.927	30.41
678.372	29.45
678.817	29.52
679.261	30.91
679.706	30.88
680.151	30.08
680.596	29.77
681.04	29.59
681.485	29.52
681.93	30.52
682.374	30.65
682.819	30.26
683.264	29.95
683.708	30.59
684.153	29.75
684.597	31.18
685.042	29.52
685.486	30.73
685.93	30.57
686.375	29.66
686.819	30.89
687.263	29.67
687.708	30.06
688.152	30.98
688.596	30.58
689.04	30.15
689.485	29.89
689.929	30.53
690.373	29.94
690.817	29.43
691.261	30.57
691.705	30.72
692.149	29.8
692.593	31.49
693.037	30.12
693.481	29.84
693.925	29.58
694.369	30.2
694.812	29.46
695.256	30.2
695.7	30.74
696.144	30.97
696.587	29.3
697.031	30.75
697.475	29.44
697.918	30.58
698.362	29.98
698.806	30.73
699.249	31.54
699.693	30.34
700.136	29.4
700.58	31.65
701.023	29.98
701.466	31.72
701.91	30.29
702.353	30.25
702.796	31.21
703.24	30.99
703.683	30.35
704.126	30.38
704.569	30.55
705.013	29.95
705.456	30.58
705.899	29.7
706.342	30.86
706.785	30.66
707.228	30.57
707.671	30.33
708.114	31.77
708.557	30.31
709	30.18
709.443	30.62
709.886	31.42
710.328	30.5
710.771	31.02
711.214	30.33
711.657	30.76
712.099	30.62
712.542	31.43
712.985	30.39
713.427	30.01
713.87	30.9
714.313	30.91
714.755	31.41
715.198	30.78
715.64	29.76
716.083	30.66
716.525	30
716.967	30.32
717.41	30.85
717.852	31.79
718.295	30.68
718.737	31.28
719.179	31.42
719.621	30.69
720.063	30.62
720.506	31.24
720.948	31.66
721.39	30.98
721.832	30.68
722.274	30.86
722.716	30.38
723.158	31.97
723.6	30.93
724.042	32.04
724.484	31.24
724.926	30.54
725.368	31.08
725.81	31.73
726.251	30.74
726.693	30.85
727.135	32.26
727.577	30.76
728.018	31.27
728.46	30.54
728.902	31.28
729.343	31.49
729.785	31.34
730.226	30.67
730.668	29.71
731.109	31.71
731.551	30.65
731.992	31.23
732.434	31.53
732.875	31.57
733.316	31.76
733.758	30.87
734.199	29.95
734.64	30.93
735.081	30.6
735.523	30.64
735.964	31.46
736.405	31.06
736.846	31.35
737.287	30.91
737.728	30.41
738.169	31.01
738.61	31.84
739.051	30.83
739.492	31.51
739.933	31.34
740.374	31.02
740.815	30.98
741.256	31.51
741.696	31.94
742.137	31.37
742.578	31.14
743.019	31.67
743.459	31.28
743.9	31.8
744.341	30.92
744.781	31.89
745.222	31.19
745.662	31.39
746.103	30.96
746.543	30.36
746.984	31.26
747.424	30.83
747.865	32.45
748.305	31.21
748.745	31.12
749.186	30.74
749.626	31.22
750.066	30.85
750.506	32.07
750.947	31.56
751.387	31.6
751.827	31.63
752.267	31.32
752.707	31.22
753.147	31.5
753.587	31.88
754.027	31.57
754.467	31.91
754.907	31.69
755.347	31.38
755.787	31.13
756.227	32.12
756.667	31.55
757.107	31.83
757.546	31.66
757.986	30.34
758.426	31.54
758.865	31.87
759.305	32.04
759.745	31.39
760.184	31.96
760.624	31.43
761.063	32.35
761.503	32.16
761.943	32.38
762.382	31.97
762.821	31.94
763.261	31.21
763.7	31.53
764.14	32.74
764.579	32.09
765.018	31.42
765.457	32.31
765.897	32.42
766.336	32.43
766.775	33.18
767.214	31.04
767.653	32.44
768.092	31.71
768.531	31.88
768.97	32.12
769.409	32.36
769.848	31.67
770.287	32.39
770.726	32.77
771.165	31.61
771.604	32.88
772.043	32.32
772.482	32.35
772.92	32.12
773.359	31.65
773.798	32.14
774.237	31.78
774.675	33.21
775.114	32.64
775.553	32.19
775.991	32.3
776.43	32.34
776.868	32.56
777.307	32.2
777.745	33.11
778.184	31.71
778.622	32.76
779.06	32.83
779.499	33.01
779.937	32.32
780.375	32.62
780.814	32.74
781.252	31.51
781.69	33.12
782.128	33.72
782.566	32.12
783.004	31.79
783.443	32.09
783.881	32.29
784.319	33.36
784.757	32.08
785.195	31.87
785.633	33.49
786.071	33.54
786.508	33.34
786.946	32.29
787.384	32.22
787.822	33.01
788.26	33.64
788.697	32.12
789.135	33.24
789.573	32.08
790.011	33.01
790.448	32.21
790.886	33.6
791.323	31.8
791.761	33.26
792.198	33.21
792.636	33
793.073	32.71
793.511	32.33
793.948	32.7
794.386	34.13
794.823	33.05
795.26	32.6
795.698	31.56
796.135	33.23
796.572	33.03
797.009	32.6
797.446	34.03
797.884	33.96
798.321	32.76
798.758	32.73
799.195	32.69
799.632	32.92
800.069	32.76
800.506	33.49
800.943	33.62
801.38	32.97
801.817	32.97
802.254	32.79
802.69	33.97
803.127	33.65
803.564	33.29
804.001	33
804.438	34.16
804.874	32.13
805.311	33.17
805.748	33.61
806.184	33.46
806.621	33.78
807.057	34.06
807.494	34.29
807.93	34.23
808.367	33.45
808.803	33.14
809.24	33.54
809.676	33.13
810.112	33.46
810.549	33.65
810.985	33.61
811.421	33.06
811.857	33.85
812.294	33.84
812.73	33.76
813.166	34.4
813.602	33.69
814.038	33.86
814.474	33.27
814.91	33.6
815.346	33.9
815.782	34.09
816.218	33.78
816.654	33.42
817.09	33.65
817.526	34.86
817.962	33.3
818.398	33.56
818.833	34.38
819.269	33.98
819.705	34.03
820.141	33.74
820.576	34.65
821.012	32.79
821.447	34.63
821.883	33.26
822.319	34.55
822.754	33.73
823.19	34.65
823.625	33.6
824.061	33.24
824.496	34.11
824.931	33.41
825.367	34.01
825.802	33.55
826.237	34.58
826.673	34.1
827.108	33.92
827.543	34.74
827.978	34.56
828.413	34.37
828.849	33.38
829.284	34.7
829.719	33.85
830.154	35.07
830.589	34.41
831.024	34.35
831.459	34.72
831.894	34.24
832.329	34.16
832.763	34.54
833.198	33.98
833.633	34.62
834.068	34.13
834.503	34.78
834.937	33.88
835.372	35.24
835.807	34.74
836.241	33.8
836.676	34.85
837.111	34.93
837.545	34.36
837.98	35.03
838.414	34.02
838.849	35.28
839.283	34.65
839.717	35.09
840.152	34.53
840.586	34.49
841.021	34.4
841.455	35.29
841.889	34.75
842.323	34.26
842.758	34.6
843.192	34.37
843.626	34.86
844.06	34.94
844.494	34.7
844.928	34.9
845.362	35.23
845.796	34.87
846.23	34.67
846.664	34.82
847.098	34.74
847.532	35.06
847.966	34.77
848.4	34.91
848.834	35.03
849.267	34.93
849.701	35.87
850.135	34.35
850.569	35.88
851.002	34.9
851.436	35.44
851.87	35.14
852.303	35.99
852.737	35.16
853.17	35.15
853.604	35.12
854.037	34.92
854.471	35.42
854.904	34.71
855.337	35.73
855.771	34.64
856.204	34.61
856.637	34.09
857.071	34.97
857.504	34.71
857.937	35.72
858.37	36.09
858.804	35.76
859.237	34.89
859.67	35.55
860.103	35.32
860.536	35.77
860.969	35.89
861.402	36.12
861.835	35.59
862.268	34.78
862.701	35.41
863.134	35.13
863.566	35.74
863.999	35.92
864.432	35.77
864.865	34.74
865.298	35.71
865.73	35.47
866.163	35.51
866.596	35.29
867.028	35.61
867.461	35.69
867.893	35.49
868.326	35.58
868.758	35.39
869.191	35.84
869.623	36.18
870.056	35.84
870.488	35.67
870.92	36.15
871.353	35.51
871.785	34.88
872.217	36.26
872.65	35.88
873.082	36.41
873.514	35.54
873.946	35.98
874.378	35.99
874.81	35.73
875.243	35.75
875.675	35.84
876.107	35.37
876.539	36.09
876.971	35.62
877.403	35.44
877.834	35.74
878.266	36.15
878.698	35.68
879.13	36.19
879.562	35.68
879.994	35.3
880.425	35.94
880.857	36.21
881.289	36.17
881.72	36.59
882.152	36.76
882.584	36.06
883.015	36.09
883.447	36.63
883.878	36.77
884.31	36.6
884.741	37.09
885.173	36.02
885.604	36.94
886.035	36.06
886.467	36.28
886.898	36.14
887.329	36.67
887.76	37
888.192	36.32
888.623	36.29
889.054	37.85
889.485	36.18
889.916	36.11
890.347	36.6
890.778	36.37
891.209	35.95
891.64	36.35
892.071	36.34
892.502	36.4
892.933	36.87
893.364	36.27
893.795	36.92
894.226	36.75
894.657	36.31
895.087	36.77
895.518	36.88
895.949	36.7
896.38	36.83
896.81	37.24
897.241	36.58
897.671	36.93
898.102	37.51
898.533	36.34
898.963	37.32
899.394	37
899.824	36.26
900.254	37.41
900.685	37.11
901.115	37.4
901.546	37.64
901.976	36.54
902.406	37.23
902.836	36.92
903.267	36.92
903.697	36.97
904.127	37.38
904.557	36.66
904.987	37.15
905.417	35.87
905.847	37.28
906.277	36.7
906.707	37.4
907.137	36.92
907.567	37.07
907.997	37.14
908.427	36.22
908.857	36.87
909.287	36.77
909.717	37.07
910.146	37.02
910.576	36.94
911.006	37.53
911.436	36.89
911.865	36.98
912.295	37.49
912.724	37.13
913.154	36.67
913.584	37.42
914.013	36.75
914.443	37.99
914.872	37.27
915.302	37.1
915.731	37.06
916.16	37.5
916.59	37.21
917.019	37.29
917.448	37.65
917.878	37.5
918.307	37.89
918.736	37.78
919.165	37.08
919.594	37.29
920.023	37.55
920.452	37.66
920.882	37.94
921.311	37.15
921.74	38.06
922.169	37.91
922.597	37.54
923.026	37.85
923.455	38.08
923.884	37.36
924.313	37.67
924.742	37.78
925.171	37.03
925.599	38.42
926.028	38.03
926.457	38.09
926.885	37.73
927.314	37.8
927.743	37.6
928.171	37.97
928.6	37.44
929.028	37.88
929.457	37.59
929.885	37.46
930.314	37.83
930.742	38.06
931.17	37.5
931.599	37.95
932.027	37.7
932.455	38.02
932.884	37.55
933.312	37.93
933.74	38.1
934.168	37.87
934.596	37.46
935.025	38
935.453	38.52
935.881	38.7
936.309	37.83
936.737	37.89
937.165	38.36
937.593	38.04
938.021	37.97
938.449	38.07
938.876	38.83
939.304	37.36
939.732	37.83
940.16	38.67
940.588	37.77
941.015	37.72
941.443	38.32
941.871	38.56
942.298	37.41
942.726	37.53
943.154	37.58
943.581	38.16
944.009	38.16
944.436	37.57
944.864	38.3
945.291	38.21
945.718	37.98
946.146	38.22
946.573	37.54
947.001	38.13
947.428	38.23
947.855	37.92
948.282	38.5
948.71	38.28
949.137	37.46
949.564	38.88
949.991	37.53
950.418	38.13
950.845	37.44
951.272	38.14
951.699	37.28
952.126	38.8
952.553	38.35
952.98	38.08
953.407	38.49
953.834	38.24
954.261	37.58
954.688	38.31
955.114	38.3
955.541	38.26
955.968	39.22
956.395	37.9
956.821	38.2
957.248	38.37
957.674	38.84
958.101	37.6
958.528	38.84
958.954	38.61
959.381	38.7
959.807	38.56
960.234	38.14
960.66	38.21
961.086	37.55
961.513	38.38
961.939	37.45
962.365	38.87
962.792	38.07
963.218	39.02
963.644	38.24
964.07	38.76
964.496	39.06
964.923	38.5
965.349	38.43
965.775	38.73
966.201	37.98
966.627	38.56
967.053	38.99
967.479	38.23
967.905	38.5
968.331	38.87
968.756	39.1
969.182	38.6
969.608	38.15
970.034	38.23
970.46	38.28
970.885	38.73
971.311	38.78
971.737	38.91
972.162	38.57
972.588	38.91
973.014	38.5
973.439	39.03
973.865	38.94
974.29	38.4
974.716	38.91
975.141	38.9
975.567	38.71
975.992	38.81
976.417	38.94
976.843	38.91
977.268	39.23
977.693	38.6
978.119	38.62
978.544	38.97
978.969	38.71
979.394	38.73
979.819	38.5
980.244	38.71
980.669	38.45
981.095	38.72
981.52	38.63
981.945	38.52
982.369	39.44
982.794	38.76
983.219	39.05
983.644	38.78
984.069	39.08
984.494	38.86
984.919	38.63
985.343	39.08
985.768	38.64
986.193	38.97
986.618	38.4
987.042	38.81
987.467	39.12
987.891	39.04
988.316	38.83
988.741	39.32
989.165	38.8
989.59	39.26
990.014	39.82
990.438	39.3
990.863	38.8
991.287	39.13
991.712	39.16
992.136	39.17
992.56	39.23
992.984	39.25
993.409	39.33
993.833	39.01
994.257	39.11
994.681	39.39
995.105	39.24
995.529	38.65
995.953	39.45
996.377	39.11
996.801	39.29
997.225	39.44
997.649	39.59
998.073	39.58
998.497	39.55
998.921	39.39
999.345	39.61
999.769	39.57
1000.192	39.52
1000.616	39.36
1001.04	39.53
1001.464	39.5
1001.887	39.3
1002.311	39.36
1002.734	39.62
1003.158	39.62
1003.582	40.05
1004.005	39.66
1004.429	39.36
1004.852	39.29
1005.275	39.33
1005.699	39.37
1006.122	39.15
1006.546	39.43
1006.969	39.94
1007.392	39.56
1007.815	40.06
1008.239	38.86
1008.662	39.15
1009.085	39.78
1009.508	39.64
1009.931	39.77
1010.354	39.13
1010.778	39.47
1011.201	39.28
1011.624	40.18
1012.047	39.86
1012.469	39.41
1012.892	39.81
1013.315	39.81
1013.738	39.98
1014.161	40.16
1014.584	39.66
1015.007	40.28
1015.429	40.14
1015.852	39.73
1016.275	39.29
1016.697	39.7
1017.12	40.22
1017.543	39.83
1017.965	40.35
1018.388	40.61
1018.81	39.82
1019.233	40.06
1019.655	39.81
1020.078	39.88
1020.5	39.73
1020.922	40.08
1021.345	40.72
1021.767	40.39
1022.189	39.81
1022.612	40
1023.034	40.36
1023.456	40.17
1023.878	40.38
1024.301	39.69
1024.723	40.31
1025.145	40.01
1025.567	39.73
1025.989	40.41
1026.411	40.21
1026.833	40.06
1027.255	40.11
1027.677	39.71
1028.099	40.39
1028.52	40.04
1028.942	40.6
1029.364	39.83
1029.786	40.12
1030.208	40.36
1030.629	39.4
1031.051	39.91
1031.473	40.29
1031.894	39.99
1032.316	40.85
1032.738	40.47
1033.159	40.71
1033.581	40.43
1034.002	39.86
1034.424	40.26
1034.845	40.18
1035.267	41.13
1035.688	40.47
1036.109	40
1036.531	39.82
1036.952	40.21
1037.373	40.2
1037.794	40.25
1038.216	40.3
1038.637	40.39
1039.058	40.48
1039.479	40.65
1039.9	40.61
1040.321	40.63
1040.742	40.83
1041.163	40.55
1041.584	40.36
1042.005	40.46
1042.426	40.31
1042.847	41.21
1043.268	40.65
1043.689	40.15
1044.11	41.33
1044.53	39.97
1044.951	40.46
1045.372	40.94
1045.793	41.37
1046.213	39.71
1046.634	40.41
1047.055	40.12
1047.475	40.29
1047.896	40.45
1048.316	40.16
1048.737	39.96
1049.157	40.29
1049.578	40.68
1049.998	40.24
1050.419	40.73
1050.839	41.58
1051.259	41.95
1051.68	40.86
1052.1	41.22
1052.52	40.47
1052.94	40.75
1053.361	40.77
1053.781	40.63
1054.201	40.15
1054.621	41.46
1055.041	41.16
1055.461	41.11
1055.881	40.3
1056.301	40.27
1056.721	40.61
1057.141	39.65
1057.561	40.8
1057.981	40.22
1058.401	40.33
1058.82	39.81
1059.24	40.38
1059.66	40.14
1060.08	41.41
1060.499	40.81
1060.919	41.57
1061.339	39.99
1061.758	40.67
1062.178	40.53
1062.598	40.82
1063.017	41.28
1063.437	41.39
1063.856	42.01
1064.276	40
1064.695	39.59
1065.114	40.36
1065.534	40.04
1065.953	41.98
1066.372	40.69
1066.792	42.12
1067.211	42.46
1067.63	39.98
1068.049	40.01
1068.469	41.59
1068.888	40.89
1069.307	40.88
1069.726	40.64
1070.145	40.23
1070.564	40.33
1070.983	41.38
1071.402	42.48
1071.821	41.47
1072.24	39.58
1072.659	40.72
1073.078	41.59
1073.496	40.77
1073.915	39.98
1074.334	40.31
1074.753	40.58
1075.171	41.02
1075.59	41.04
1076.009	40.96
1076.427	39.46
1076.846	40.14
1077.265	40.34
1077.683	39.87
1078.102	42.85
1078.52	39.43
1078.939	41.74
1079.357	41.03
1079.776	40.53
1080.194	41.85
1080.612	40.42
1081.031	41.87
1081.449	40.21
1081.867	38.54
1082.285	40.86
1082.704	42.15
1083.122	40.28
1083.54	39.17
1083.958	40.77
1084.376	40.97
1084.794	39.89
1085.212	40.12
1085.63	43.11
1086.048	40.3
1086.466	42.31
1086.884	40.88
1087.302	39.95
1087.72	41.83
1088.138	40.81
1088.555	40.58
1088.973	40.1
1089.391	40.46
1089.809	39.55
1090.226	40.58
1090.644	42.4
1091.062	40.26
1091.479	39.95
1091.897	42.57
1092.314	41.09
1092.732	40.21
1093.15	40.43
1093.567	38.6
1093.984	41.42
1094.402	41.24
1094.819	41.14
1095.237	40.9
1095.654	39.94
1096.071	39.84
1096.488	41.29
1096.906	39.41
1097.323	40
1097.74	40.17
1098.157	41.47
1098.574	39.73
1098.991	39.48
1099.409	39.99
1099.826	40.32
1100.243	39.07
1100.66	42.26
1101.077	39.02
1101.494	42.9
1101.91	39.92
1102.327	38.44
1102.744	40.34
1103.161	42.55
1103.578	39.29
1103.994	42.38
1104.411	39.61
1104.828	40.45
1105.245	35.51
1105.661	38.05
1106.078	40.21
1106.494	40.25
1106.911	42.88
1107.328	37.51
1107.744	39.19
1108.161	38.71
1108.577	42.18
1108.993	36.35
1109.41	40.32
1109.826	40.98
1110.242	37.8
1110.659	41.1
1111.075	40.45
1111.491	43.77
1111.908	38.67
1112.324	41.97
1112.74	27.2
1113.156	40.5
1113.572	40.57
1113.988	37.98
1114.404	39.52
1114.82	40.45
1115.236	35.17
1115.652	39.61
1116.068	39.78
1116.484	41.76
1116.9	34.84
1117.316	45.55
1117.732	-57.14
1118.147	-22.22
1118.563	-0
1118.979	22.22
