Data from JCR0014_PreoccularBrown_Reflection_00001.txt Node
Date: Thu Jul 23 15:03:35 ACST 2020
User: Stacey Dix
Spectrometer: MAYP113282
Scans to average: 1
Trigger mode: 0
Integration Time (sec): 1.000000E-1
Electric dark correction enabled: true
Boxcar width: 0
XAxis mode: Wavelengths
Number of Pixels in Spectrum: 2068
>>>>>Begin Spectral Data<<<<<
198.791	-733.33
199.266	933.33
199.74	66.67
200.215	-38.1
200.69	-16.06
201.164	-1.78
201.639	0.94
202.114	13.24
202.588	13.17
203.063	-1
203.537	-81.72
204.012	29.96
204.486	14.87
204.961	19.16
205.435	-17.34
205.909	17.54
206.384	15.42
206.858	11
207.332	0.58
207.807	-19.14
208.281	28.22
208.755	-3
209.229	5.09
209.703	11.41
210.177	-9.69
210.651	28.22
211.126	-3.68
211.6	0.49
212.074	5.98
212.548	17.85
213.021	20.33
213.495	8.67
213.969	-41.46
214.443	-53.75
214.917	7.57
215.391	6.31
215.864	-4.29
216.338	-6.19
216.812	13.57
217.286	7.3
217.759	-1.51
218.233	-6.53
218.706	-11.18
219.18	10.59
219.654	11.39
220.127	38.91
220.6	6.76
221.074	3.32
221.547	8.95
222.021	8.95
222.494	5.58
222.967	-8.42
223.441	5.89
223.914	3.62
224.387	6.56
224.86	-2.28
225.334	7.11
225.807	1.4
226.28	-5.4
226.753	18.69
227.226	1.59
227.699	-0.31
228.172	6.65
228.645	-11.04
229.118	-2.69
229.591	5.28
230.064	1.74
230.537	2.26
231.01	0.39
231.482	1.57
231.955	-3.86
232.428	5.42
232.901	0.36
233.373	2
233.846	0.53
234.319	-2.91
234.791	5.88
235.264	4.95
235.736	2.81
236.209	3.23
236.681	2.82
237.154	1.34
237.626	5.35
238.099	3.63
238.571	3.89
239.044	3.26
239.516	4.41
239.988	2.22
240.46	3.83
240.933	4.29
241.405	2.46
241.877	2.72
242.349	1.58
242.821	1.52
243.293	3.91
243.765	2.06
244.237	5.36
244.71	-0.73
245.181	4.1
245.653	5.1
246.125	2.52
246.597	4.54
247.069	3.12
247.541	2.4
248.013	3.23
248.485	1.67
248.956	-0.6
249.428	1.41
249.9	6.6
250.371	1.27
250.843	3.5
251.315	1.72
251.786	2.67
252.258	2.83
252.729	4.95
253.201	2.71
253.672	1.81
254.144	2.21
254.615	3.76
255.086	2.61
255.558	3.46
256.029	1.74
256.5	2.74
256.972	3.05
257.443	4.36
257.914	2.85
258.385	2.31
258.856	1.13
259.327	2.61
259.799	2.27
260.27	1.28
260.741	2.54
261.212	3.81
261.683	2.54
262.154	3.03
262.624	2.49
263.095	1.38
263.566	3.13
264.037	2.55
264.508	3.3
264.979	-0.19
265.449	4.8
265.92	3
266.391	1.67
266.861	2.41
267.332	2.85
267.803	1.31
268.273	2.26
268.744	2.01
269.214	3.2
269.685	3.25
270.155	1.25
270.626	2.1
271.096	1.73
271.566	3.42
272.037	2.01
272.507	4.67
272.977	3.49
273.448	3.74
273.918	3.48
274.388	2
274.858	3.11
275.328	0.03
275.798	0.14
276.268	3.02
276.738	4.36
277.208	2.91
277.678	4.54
278.148	-0.38
278.618	-0.59
279.088	0.34
279.558	2.15
280.028	1.6
280.498	0.88
280.968	2.85
281.437	3.32
281.907	2.51
282.377	3.47
282.847	2.28
283.316	1.29
283.786	1.09
284.255	1.98
284.725	3.43
285.194	2.94
285.664	3.26
286.133	1.96
286.603	2.87
287.072	3.84
287.542	1.03
288.011	3.99
288.48	1.7
288.95	1.82
289.419	2.86
289.888	2.15
290.357	2.95
290.827	2.2
291.296	2.41
291.765	1.79
292.234	2.51
292.703	3.63
293.172	3
293.641	1.16
294.11	0.64
294.579	3.06
295.048	2.48
295.517	2.47
295.986	3.08
296.455	2.39
296.923	2.01
297.392	2.71
297.861	3.23
298.33	2.35
298.798	1.29
299.267	3.17
299.736	2.32
300.204	2.41
300.673	2.54
301.141	3.16
301.61	2.16
302.079	3.32
302.547	1.38
303.015	1.5
303.484	3.63
303.952	0.8
304.421	2.5
304.889	0.78
305.357	2.48
305.825	2.31
306.294	2.9
306.762	4.22
307.23	2.38
307.698	2.82
308.166	0.95
308.634	1.9
309.103	2.88
309.571	1.43
310.039	2.58
310.507	1.99
310.975	2.35
311.442	1.73
311.91	2.66
312.378	2.02
312.846	3.03
313.314	0.92
313.782	3.15
314.249	2.22
314.717	2.76
315.185	3.68
315.652	3.7
316.12	2.79
316.588	3.35
317.055	1.7
317.523	3.46
317.99	3.25
318.458	3
318.925	3.48
319.393	2.3
319.86	2.3
320.328	1.68
320.795	2.74
321.262	2.6
321.73	1.68
322.197	1.87
322.664	1.52
323.131	4.36
323.598	2.38
324.066	1.05
324.533	2.63
325	5.03
325.467	3.05
325.934	1.98
326.401	3.13
326.868	2.98
327.335	3.45
327.802	1.52
328.269	1.3
328.735	3.81
329.202	4.36
329.669	2.37
330.136	2.84
330.603	2.7
331.069	2.79
331.536	2.03
332.003	1.47
332.469	3.07
332.936	3.46
333.402	2.16
333.869	3.63
334.336	3.78
334.802	2.08
335.268	2.88
335.735	2.96
336.201	2.06
336.668	2.25
337.134	3.72
337.6	2.61
338.067	3.12
338.533	3.32
338.999	3
339.465	2.77
339.931	1.71
340.398	3.22
340.864	2.63
341.33	2.71
341.796	3.76
342.262	2.66
342.728	3.33
343.194	3.83
343.66	2
344.126	2.95
344.592	1.76
345.057	3.7
345.523	3.58
345.989	2.16
346.455	4.05
346.921	3.23
347.386	3.87
347.852	0.88
348.318	3.11
348.783	2.68
349.249	1.17
349.714	2.01
350.18	1.43
350.645	2.71
351.111	1.85
351.576	1.83
352.042	3.15
352.507	1.27
352.973	0.42
353.438	1.38
353.903	1.58
354.369	2.48
354.834	2.17
355.299	2.59
355.764	1.5
356.229	2.53
356.695	0.94
357.16	1.39
357.625	2.04
358.09	1.92
358.555	1.24
359.02	3.37
359.485	1.35
359.95	1.5
360.415	1.9
360.879	2.98
361.344	1.41
361.809	1.97
362.274	2.74
362.739	-1.23
363.203	4.28
363.668	2.19
364.133	1.35
364.597	2.54
365.062	0.59
365.527	2.5
365.991	0.51
366.456	1.95
366.92	1.7
367.385	3.21
367.849	0.9
368.314	2.4
368.778	1.18
369.242	2
369.707	1.62
370.171	2.46
370.635	2.24
371.1	0.65
371.564	1.52
372.028	4.08
372.492	1.91
372.956	2.09
373.42	3.16
373.884	2.06
374.348	3.54
374.812	0.09
375.276	2.68
375.74	2.08
376.204	1.58
376.668	2.41
377.132	2.25
377.596	1.47
378.06	3.03
378.524	2.47
378.987	1.59
379.451	1.62
379.915	1.37
380.378	2.78
380.842	2.05
381.306	1.43
381.769	1.56
382.233	1.58
382.696	2.64
383.16	2.07
383.623	1.52
384.087	1.31
384.55	3.53
385.014	0.95
385.477	2.06
385.94	1.96
386.404	1
386.867	2.42
387.33	2.53
387.793	2.96
388.256	1.7
388.72	1.63
389.183	0.49
389.646	2.09
390.109	1.48
390.572	1.35
391.035	2.3
391.498	1.91
391.961	1.55
392.424	2.08
392.887	1.14
393.35	2.45
393.812	2.99
394.275	2.54
394.738	1.9
395.201	2.35
395.664	2.18
396.126	2.25
396.589	1.7
397.052	1.45
397.514	1.07
397.977	2.35
398.439	2.41
398.902	1.68
399.364	1.38
399.827	1.23
400.289	3.29
400.752	2.3
401.214	0.78
401.676	1.66
402.139	2.5
402.601	1.82
403.063	1.55
403.525	2.04
403.988	1.88
404.45	2.81
404.912	2.12
405.374	1.77
405.836	1.83
406.298	2.77
406.76	1.67
407.222	2.84
407.684	1.79
408.146	1.84
408.608	1.56
409.07	1.16
409.532	1.47
409.994	2.05
410.456	1.3
410.917	1.4
411.379	1.2
411.841	1.29
412.303	2
412.764	0.57
413.226	2
413.687	1.15
414.149	0.77
414.611	0.54
415.072	0.61
415.534	0.86
415.995	1.37
416.457	0.8
416.918	1.82
417.379	2.66
417.841	1.36
418.302	0.74
418.763	1.87
419.225	1.15
419.686	0.34
420.147	0.43
420.608	1.06
421.069	2.24
421.53	1.69
421.991	1.64
422.453	1.89
422.914	2.95
423.375	1.41
423.836	0.78
424.297	1.66
424.757	1.37
425.218	1.67
425.679	0.79
426.14	0.6
426.601	1.28
427.062	1.91
427.522	1.87
427.983	1.47
428.444	1.08
428.904	2.42
429.365	1.8
429.826	1.49
430.286	0.6
430.747	2.42
431.207	2.28
431.668	1.46
432.128	-0.29
432.589	1.7
433.049	0.25
433.509	-1.3
433.97	0.57
434.43	1.11
434.89	1.74
435.351	3.33
435.811	1.17
436.271	2.02
436.731	1.68
437.191	2.26
437.651	2.07
438.112	2.99
438.572	3.84
439.032	1.84
439.492	2.61
439.952	2.14
440.412	0.69
440.871	2.11
441.331	1.57
441.791	2.34
442.251	0.03
442.711	1.11
443.171	1.66
443.63	3.04
444.09	3.52
444.55	1.97
445.009	1.47
445.469	-0.87
445.929	0.82
446.388	2.76
446.848	2.2
447.307	1.65
447.767	1.26
448.226	-1.09
448.686	0.78
449.145	0.98
449.604	0.7
450.064	2.48
450.523	2.89
450.982	2.34
451.442	0.45
451.901	1.7
452.36	-0.49
452.819	2.9
453.278	0.89
453.737	2.29
454.197	1.07
454.656	2.62
455.115	2.56
455.574	1.55
456.033	3.67
456.492	1.79
456.95	1.03
457.409	1.28
457.868	1.87
458.327	2.04
458.786	-0.15
459.245	1.04
459.703	2.42
460.162	2.43
460.621	0.6
461.079	1.15
461.538	0.92
461.997	3.79
462.455	1.17
462.914	0.62
463.372	0.23
463.831	0.34
464.289	0.85
464.748	1.76
465.206	1.23
465.664	1.43
466.123	3.2
466.581	-1
467.039	2.7
467.497	3.94
467.956	1.11
468.414	2.88
468.872	2.99
469.33	1.01
469.788	3.71
470.246	1.35
470.704	1.23
471.162	0.97
471.62	2.92
472.078	3.6
472.536	2.35
472.994	0.25
473.452	1.89
473.91	3.76
474.368	2.5
474.826	1.13
475.283	3.26
475.741	-0.07
476.199	4.22
476.656	1.73
477.114	0.89
477.572	3.24
478.029	1.21
478.487	1.33
478.944	1.53
479.402	1.29
479.859	0.85
480.317	1.44
480.774	-1.21
481.232	-0.18
481.689	1.11
482.146	1.09
482.604	4.56
483.061	-0.07
483.518	1.06
483.975	0.7
484.433	1.19
484.89	0.91
485.347	3.18
485.804	2.45
486.261	1.61
486.718	3.15
487.175	-1.52
487.632	3.12
488.089	3.57
488.546	1.1
489.003	1.88
489.46	3.78
489.917	3.71
490.373	2.29
490.83	2.84
491.287	0.82
491.744	3.83
492.2	1.36
492.657	4.66
493.114	1.57
493.57	3.89
494.027	2.14
494.484	5.18
494.94	-1.05
495.397	3.61
495.853	5.02
496.31	1.9
496.766	0.96
497.222	1.98
497.679	5.05
498.135	2.97
498.591	2.62
499.048	3.96
499.504	4.47
499.96	2.39
500.416	1.68
500.872	1.57
501.329	3.1
501.785	3.28
502.241	1.7
502.697	1.55
503.153	0.64
503.609	0.61
504.065	2.95
504.521	2.98
504.977	1.08
505.432	3.55
505.888	1.56
506.344	3.6
506.8	-0.99
507.256	3.37
507.711	2.01
508.167	1.57
508.623	3.03
509.078	3.56
509.534	3.41
509.99	5.59
510.445	4.08
510.901	0.61
511.356	2.45
511.812	3.8
512.267	4.83
512.722	2.67
513.178	2.23
513.633	4.6
514.089	1.67
514.544	2.53
514.999	4.96
515.454	1.81
515.91	4.68
516.365	3.42
516.82	4.37
517.275	2.72
517.73	5.17
518.185	1.82
518.64	3.88
519.095	3.08
519.55	3.1
520.005	3.93
520.46	5.81
520.915	3.85
521.37	3.42
521.825	2.94
522.28	3.41
522.734	3.85
523.189	2.74
523.644	2.41
524.099	2.58
524.553	3.4
525.008	4.2
525.462	3.91
525.917	4.33
526.372	2.48
526.826	3.88
527.281	3.61
527.735	3.47
528.19	4.85
528.644	3.05
529.098	4.84
529.553	3.86
530.007	3.85
530.461	3.14
530.916	2.81
531.37	3.62
531.824	2.41
532.278	2.57
532.732	3.82
533.186	5.63
533.641	3.65
534.095	6.13
534.549	3.29
535.003	4.57
535.457	3.47
535.911	4.23
536.365	7.97
536.818	3.25
537.272	3.99
537.726	4.29
538.18	1.29
538.634	4.42
539.087	3.75
539.541	3.84
539.995	6.23
540.449	5.19
540.902	3.96
541.356	3.62
541.809	3.61
542.263	2.93
542.716	6.4
543.17	2.48
543.623	4.55
544.077	3.97
544.53	5.25
544.984	5.02
545.437	3.08
545.89	4.84
546.344	3.79
546.797	4.6
547.25	4.3
547.703	2.78
548.157	3.11
548.61	4.49
549.063	2.44
549.516	6.9
549.969	4.57
550.422	6.29
550.875	3.96
551.328	3.24
551.781	4.18
552.234	4.53
552.687	3.99
553.14	4.23
553.592	4.83
554.045	4.27
554.498	3.6
554.951	4.86
555.404	5.76
555.856	3.95
556.309	4.98
556.762	5.49
557.214	5.5
557.667	5.56
558.119	4.74
558.572	5.53
559.024	7.33
559.477	5.37
559.929	3.71
560.382	3.06
560.834	3.82
561.286	4.32
561.739	5.42
562.191	4.75
562.643	4.93
563.095	5.33
563.548	4.11
564	6.58
564.452	4.52
564.904	7.33
565.356	4.31
565.808	5.08
566.26	6.13
566.712	4.5
567.164	6.03
567.616	4.78
568.068	4.94
568.52	4.67
568.972	4.68
569.424	7.58
569.876	4.88
570.327	4.52
570.779	5.43
571.231	4.21
571.682	5.39
572.134	4.48
572.586	5.13
573.037	5.52
573.489	5.53
573.941	5.34
574.392	5.19
574.844	6.15
575.295	5.57
575.746	5.39
576.198	5.82
576.649	5.7
577.101	6.75
577.552	5.44
578.003	5.51
578.454	4.76
578.906	5.55
579.357	6.27
579.808	5.51
580.259	6.23
580.71	5.07
581.161	6.47
581.612	5.63
582.064	5.58
582.515	5.81
582.965	4.7
583.416	6.4
583.867	5.59
584.318	4.82
584.769	4.83
585.22	5.37
585.671	5.25
586.122	5.22
586.572	5.75
587.023	5.7
587.474	4.69
587.924	4.15
588.375	5.32
588.826	5.84
589.276	4.01
589.727	7.26
590.177	6.2
590.628	5.09
591.078	5.59
591.529	6.86
591.979	6.8
592.429	5.69
592.88	5.77
593.33	6.37
593.78	5.77
594.231	6.75
594.681	6.25
595.131	6.44
595.581	6.2
596.031	5.8
596.481	5.42
596.932	6.03
597.382	6.5
597.832	6.22
598.282	6.6
598.732	6.32
599.182	7.25
599.632	6.57
600.081	5.81
600.531	6.03
600.981	6.27
601.431	5.51
601.881	6.18
602.33	5.95
602.78	5.36
603.23	6.94
603.679	6.37
604.129	5.78
604.579	6.37
605.028	5.18
605.478	4.95
605.927	6.62
606.377	5.55
606.826	6.33
607.276	5.92
607.725	6.18
608.175	5.3
608.624	5.83
609.073	5.24
609.522	6.01
609.972	5.66
610.421	7.01
610.87	5.61
611.319	6.16
611.768	5.92
612.218	5.78
612.667	5.25
613.116	6.5
613.565	5.42
614.014	7
614.463	6.72
614.912	6.01
615.361	6.97
615.81	6.94
616.258	7.19
616.707	7.36
617.156	7.46
617.605	6.4
618.054	7.04
618.502	6.85
618.951	6.45
619.4	6.98
619.848	5.74
620.297	6.62
620.745	6.85
621.194	6.67
621.642	6.95
622.091	7.37
622.539	6.47
622.988	6.82
623.436	7.27
623.885	6.59
624.333	6.41
624.781	6.6
625.23	6.43
625.678	7.13
626.126	6.61
626.574	6.29
627.022	6.71
627.471	7.6
627.919	7.49
628.367	6.34
628.815	7.18
629.263	6.77
629.711	6.44
630.159	6.4
630.607	7.54
631.055	7.65
631.503	6.78
631.95	7.32
632.398	6.99
632.846	6.31
633.294	7.36
633.742	7.14
634.189	7.49
634.637	6.92
635.085	7.34
635.532	7.11
635.98	6.75
636.427	6.71
636.875	7.06
637.323	7.53
637.77	6.81
638.217	7.55
638.665	7.07
639.112	8.06
639.56	7.5
640.007	7.2
640.454	6.93
640.902	7.76
641.349	6.87
641.796	6.88
642.243	7.25
642.69	6.45
643.138	7.13
643.585	8.31
644.032	7.92
644.479	6.55
644.926	6.62
645.373	7.76
645.82	7.3
646.267	8.23
646.714	6.83
647.161	8.01
647.607	7.25
648.054	7.4
648.501	8.01
648.948	7.9
649.395	7.13
649.841	6.95
650.288	7.77
650.735	7.87
651.181	7.06
651.628	7.4
652.075	7.54
652.521	7.39
652.968	7.56
653.414	6.9
653.861	7.09
654.307	7.53
654.753	7.61
655.2	7.77
655.646	7.75
656.092	7.82
656.539	7.25
656.985	7.41
657.431	7.51
657.877	7.34
658.324	7.59
658.77	7.42
659.216	7.82
659.662	7.21
660.108	8.5
660.554	7.83
661	7.47
661.446	7.66
661.892	7.5
662.338	8.45
662.784	6.95
663.23	7.95
663.675	8.3
664.121	7.45
664.567	7.6
665.013	7.73
665.458	7.77
665.904	8.12
666.35	7.76
666.795	7.53
667.241	7.92
667.687	7.71
668.132	7.09
668.578	8.01
669.023	7.91
669.469	8.49
669.914	7.56
670.359	8.49
670.805	7.6
671.25	8.1
671.695	7.76
672.141	8.02
672.586	8.42
673.031	8.11
673.476	8.2
673.922	7.99
674.367	8.06
674.812	7.67
675.257	7.85
675.702	7.75
676.147	8.71
676.592	8.47
677.037	8.61
677.482	7.91
677.927	8.3
678.372	8.31
678.817	8.3
679.261	8.34
679.706	8.37
680.151	8.44
680.596	7.54
681.04	9.13
681.485	8.09
681.93	7.93
682.374	8.21
682.819	8.12
683.264	8.27
683.708	8.22
684.153	8.72
684.597	8.35
685.042	8.71
685.486	8.63
685.93	8.72
686.375	8.44
686.819	7.9
687.263	8.58
687.708	8.21
688.152	8.36
688.596	8.92
689.04	8.32
689.485	8.19
689.929	8.7
690.373	8.36
690.817	8.54
691.261	8.69
691.705	8.46
692.149	8.45
692.593	9.01
693.037	8.13
693.481	8.09
693.925	8.27
694.369	8.93
694.812	9.04
695.256	8.07
695.7	8.36
696.144	8.61
696.587	7.98
697.031	8.29
697.475	8.4
697.918	8.78
698.362	8.39
698.806	8.42
699.249	8.26
699.693	8.35
700.136	8.57
700.58	9.04
701.023	8.31
701.466	8.47
701.91	8.55
702.353	9.14
702.796	8.65
703.24	9.05
703.683	8.9
704.126	8.85
704.569	8.94
705.013	9.19
705.456	9.09
705.899	8.89
706.342	9.1
706.785	9.56
707.228	8.56
707.671	8.59
708.114	9.01
708.557	9.48
709	9.14
709.443	9.14
709.886	8.55
710.328	8.72
710.771	9.49
711.214	9.11
711.657	8.75
712.099	8.72
712.542	9.55
712.985	8.6
713.427	9.37
713.87	9.64
714.313	9.23
714.755	9.07
715.198	8.88
715.64	9.37
716.083	9.53
716.525	9.07
716.967	8.74
717.41	10.03
717.852	9.26
718.295	9.22
718.737	8.48
719.179	9.21
719.621	8.78
720.063	9
720.506	9.6
720.948	9.75
721.39	9.45
721.832	9.04
722.274	9.7
722.716	8.7
723.158	9.37
723.6	9.5
724.042	8.91
724.484	9.64
724.926	9.14
725.368	9.48
725.81	9.4
726.251	8.78
726.693	9.2
727.135	9.35
727.577	9.45
728.018	9.55
728.46	10.12
728.902	9.29
729.343	9.09
729.785	9.67
730.226	9.55
730.668	9.11
731.109	9.81
731.551	8.33
731.992	9.82
732.434	9.39
732.875	9.6
733.316	9.78
733.758	9.49
734.199	8.76
734.64	9.26
735.081	9.5
735.523	9.49
735.964	9.75
736.405	9.86
736.846	9.58
737.287	8.95
737.728	9.97
738.169	9.33
738.61	8.86
739.051	9.61
739.492	10.53
739.933	9.2
740.374	9.24
740.815	9.95
741.256	8.83
741.696	9.89
742.137	10.25
742.578	9.96
743.019	9.21
743.459	9.69
743.9	9.29
744.341	9.99
744.781	10.01
745.222	9.34
745.662	10.2
746.103	9.55
746.543	9.79
746.984	10.23
747.424	9.89
747.865	10.06
748.305	9.42
748.745	9.46
749.186	9.61
749.626	9.5
750.066	9.31
750.506	10.54
750.947	9.56
751.387	9.82
751.827	9.52
752.267	10.17
752.707	9.8
753.147	9.8
753.587	9.86
754.027	10.31
754.467	10.22
754.907	9.91
755.347	9.34
755.787	10.02
756.227	9.97
756.667	10.08
757.107	9.58
757.546	9.95
757.986	9.26
758.426	10.84
758.865	10.02
759.305	10.09
759.745	10.8
760.184	10.14
760.624	9.89
761.063	10.43
761.503	10.16
761.943	10.39
762.382	10.08
762.821	10.19
763.261	10.1
763.7	9.78
764.14	10.34
764.579	10.44
765.018	10.45
765.457	10.16
765.897	10.58
766.336	10.06
766.775	10.69
767.214	10.37
767.653	10.08
768.092	10.86
768.531	10.3
768.97	10.56
769.409	9.73
769.848	10.04
770.287	10.51
770.726	10.73
771.165	10.35
771.604	10.42
772.043	10.26
772.482	10.3
772.92	9.75
773.359	9.77
773.798	9.81
774.237	10.19
774.675	11.25
775.114	10.74
775.553	10.48
775.991	10.74
776.43	11.49
776.868	10.69
777.307	10.83
777.745	10.65
778.184	10.78
778.622	11.31
779.06	10.63
779.499	10.88
779.937	10.49
780.375	10.53
780.814	10.4
781.252	10.7
781.69	10.52
782.128	10.74
782.566	10.26
783.004	10.4
783.443	10.9
783.881	10.58
784.319	10.82
784.757	10.69
785.195	10.8
785.633	11.21
786.071	10.93
786.508	10.61
786.946	10.51
787.384	10.85
787.822	10.77
788.26	11.06
788.697	10.61
789.135	11.17
789.573	11.14
790.011	10.67
790.448	10.6
790.886	10.87
791.323	10.46
791.761	10.94
792.198	11.16
792.636	10.95
793.073	10.91
793.511	11.09
793.948	11.6
794.386	10.92
794.823	10.89
795.26	10.75
795.698	10.42
796.135	11.12
796.572	10.82
797.009	11.36
797.446	11.28
797.884	10.79
798.321	11.15
798.758	11.18
799.195	11.26
799.632	11.17
800.069	10.73
800.506	11.37
800.943	11.11
801.38	11.33
801.817	11.56
802.254	11.03
802.69	11.46
803.127	11.26
803.564	11.18
804.001	11.11
804.438	11.08
804.874	11.1
805.311	11.14
805.748	11.31
806.184	11.19
806.621	11.03
807.057	11.89
807.494	11.69
807.93	11.41
808.367	10.92
808.803	11.71
809.24	11.45
809.676	11.3
810.112	11.74
810.549	11.29
810.985	11.98
811.421	11.59
811.857	11.47
812.294	11.51
812.73	11.92
813.166	11.33
813.602	12.22
814.038	11.37
814.474	12.24
814.91	11.26
815.346	11.38
815.782	11.55
816.218	11.22
816.654	11.58
817.09	11.59
817.526	11.5
817.962	11.8
818.398	11.57
818.833	11.61
819.269	11.8
819.705	11.41
820.141	11.38
820.576	11.8
821.012	11.65
821.447	11.75
821.883	11.32
822.319	11.5
822.754	11.74
823.19	11.99
823.625	11.98
824.061	11.61
824.496	11.23
824.931	12.16
825.367	11.98
825.802	11.4
826.237	11.77
826.673	11.79
827.108	11.76
827.543	11.81
827.978	11.95
828.413	12.01
828.849	11.57
829.284	12.02
829.719	12.12
830.154	11.68
830.589	11.91
831.024	11.82
831.459	12.28
831.894	11.86
832.329	11.49
832.763	11.69
833.198	11.84
833.633	11.59
834.068	12.16
834.503	11.7
834.937	11.59
835.372	12.58
835.807	12.45
836.241	11.68
836.676	12.35
837.111	11.78
837.545	11.91
837.98	12.26
838.414	11.79
838.849	11.91
839.283	12.63
839.717	12.18
840.152	11.74
840.586	11.74
841.021	12.2
841.455	12.11
841.889	12.48
842.323	12.21
842.758	12.1
843.192	12.17
843.626	12.63
844.06	12.63
844.494	12.45
844.928	12.06
845.362	12.37
845.796	11.86
846.23	12.53
846.664	12.41
847.098	12.78
847.532	12.52
847.966	12.78
848.4	11.99
848.834	12.21
849.267	12.3
849.701	12.52
850.135	12.21
850.569	12.52
851.002	12.05
851.436	12.27
851.87	12.14
852.303	12.62
852.737	12.41
853.17	12.53
853.604	12.96
854.037	12.68
854.471	12.65
854.904	12.18
855.337	12.37
855.771	12.26
856.204	12.32
856.637	12.48
857.071	12.56
857.504	12.62
857.937	12.39
858.37	12.45
858.804	12.74
859.237	12.57
859.67	12.71
860.103	12.73
860.536	12.45
860.969	12.5
861.402	12.3
861.835	12.47
862.268	12.52
862.701	12.47
863.134	12.81
863.566	12.54
863.999	12.97
864.432	12.45
864.865	12.95
865.298	12.89
865.73	12.66
866.163	12.67
866.596	12.67
867.028	13.41
867.461	12.69
867.893	12.55
868.326	12.32
868.758	12.46
869.191	12.69
869.623	12.27
870.056	12.79
870.488	12.37
870.92	13.08
871.353	12.84
871.785	13.29
872.217	13.1
872.65	12.77
873.082	13.04
873.514	12.9
873.946	13
874.378	13.09
874.81	13.2
875.243	13.11
875.675	12.69
876.107	12.87
876.539	13.09
876.971	13.01
877.403	12.85
877.834	12.94
878.266	12.97
878.698	12.59
879.13	12.7
879.562	13.12
879.994	12.76
880.425	13.08
880.857	13.22
881.289	13.1
881.72	13.18
882.152	13.58
882.584	12.8
883.015	12.97
883.447	13.43
883.878	13.38
884.31	13.16
884.741	13.11
885.173	12.95
885.604	13.26
886.035	13
886.467	12.83
886.898	13.25
887.329	13.04
887.76	13.21
888.192	12.98
888.623	12.87
889.054	12.96
889.485	13.12
889.916	13.16
890.347	13.01
890.778	13.13
891.209	12.94
891.64	13.07
892.071	12.94
892.502	13.37
892.933	13.29
893.364	12.87
893.795	13.3
894.226	13
894.657	13.04
895.087	13.51
895.518	13.05
895.949	13.44
896.38	13.08
896.81	13.31
897.241	13.15
897.671	13.09
898.102	13.35
898.533	13.04
898.963	13.54
899.394	13.41
899.824	12.95
900.254	13.55
900.685	13.24
901.115	13.25
901.546	13.33
901.976	13.5
902.406	13.33
902.836	13.16
903.267	13.37
903.697	13.47
904.127	13.62
904.557	13.54
904.987	13.16
905.417	12.47
905.847	13.44
906.277	13.51
906.707	13.29
907.137	13.63
907.567	13.54
907.997	13.52
908.427	13.14
908.857	13.55
909.287	13.15
909.717	13.7
910.146	13.64
910.576	13.3
911.006	13.52
911.436	13.37
911.865	13.42
912.295	13.47
912.724	13.81
913.154	13.36
913.584	13.77
914.013	13.79
914.443	13.33
914.872	13.36
915.302	13.36
915.731	13.66
916.16	13.53
916.59	13.49
917.019	13.23
917.448	13.57
917.878	13.89
918.307	13.52
918.736	13.72
919.165	13.39
919.594	13.57
920.023	13.92
920.452	13.88
920.882	13.7
921.311	13.61
921.74	13.75
922.169	13.33
922.597	13.07
923.026	13.7
923.455	13.74
923.884	13.79
924.313	14.02
924.742	13.73
925.171	13.62
925.599	13.83
926.028	13.85
926.457	13.75
926.885	13.38
927.314	13.8
927.743	13.35
928.171	13.65
928.6	13.46
929.028	13.78
929.457	13.77
929.885	13.92
930.314	14.02
930.742	13.72
931.17	13.89
931.599	13.71
932.027	14.06
932.455	13.88
932.884	13.96
933.312	13.66
933.74	13.85
934.168	13.91
934.596	13.99
935.025	13.69
935.453	14.38
935.881	14.02
936.309	13.81
936.737	13.74
937.165	13.26
937.593	13.59
938.021	13.99
938.449	14.05
938.876	13.7
939.304	13.93
939.732	13.49
940.16	13.76
940.588	13.7
941.015	13.12
941.443	13.5
941.871	13.62
942.298	13.47
942.726	13.7
943.154	14.16
943.581	14.11
944.009	13.84
944.436	13.98
944.864	13.67
945.291	13.48
945.718	13.75
946.146	13.95
946.573	13.91
947.001	13.67
947.428	14.23
947.855	13.54
948.282	13.75
948.71	13.94
949.137	14.03
949.564	14.08
949.991	13.84
950.418	14.33
950.845	13.67
951.272	14.03
951.699	13.57
952.126	13.76
952.553	13.75
952.98	13.52
953.407	13.96
953.834	14.07
954.261	13.41
954.688	14.01
955.114	13.78
955.541	14.11
955.968	14.34
956.395	14.29
956.821	13.83
957.248	14.06
957.674	13.66
958.101	13.53
958.528	13.89
958.954	14.21
959.381	14.47
959.807	13.96
960.234	13.98
960.66	13.94
961.086	13.72
961.513	14.25
961.939	13.87
962.365	14.08
962.792	13.96
963.218	14.12
963.644	13.97
964.07	14.09
964.496	14.11
964.923	13.85
965.349	14.16
965.775	13.91
966.201	14.18
966.627	13.84
967.053	14.03
967.479	13.92
967.905	14.06
968.331	14.1
968.756	13.85
969.182	13.93
969.608	14.29
970.034	14
970.46	13.81
970.885	14.06
971.311	14
971.737	13.99
972.162	14.04
972.588	14.17
973.014	13.98
973.439	14.05
973.865	13.94
974.29	13.61
974.716	14.15
975.141	14.23
975.567	13.92
975.992	13.65
976.417	14.36
976.843	14.33
977.268	14.26
977.693	13.87
978.119	14.33
978.544	14.37
978.969	13.7
979.394	14.18
979.819	14.12
980.244	14.02
980.669	14.04
981.095	13.93
981.52	13.86
981.945	13.98
982.369	15
982.794	14.21
983.219	14.47
983.644	14.04
984.069	14.32
984.494	14.11
984.919	13.9
985.343	13.89
985.768	14.38
986.193	13.89
986.618	13.85
987.042	14.37
987.467	14.1
987.891	14.11
988.316	14.37
988.741	14.2
989.165	14.13
989.59	14.22
990.014	14.41
990.438	14.07
990.863	14.08
991.287	14.29
991.712	14.1
992.136	14.2
992.56	14.25
992.984	14.01
993.409	14.46
993.833	14.23
994.257	14.27
994.681	14.19
995.105	14.06
995.529	14.26
995.953	14.4
996.377	14.23
996.801	14.27
997.225	14.15
997.649	14.06
998.073	14.24
998.497	14.18
998.921	14.42
999.345	14.42
999.769	14.22
1000.192	14.3
1000.616	14.11
1001.04	14.37
1001.464	14.31
1001.887	14.46
1002.311	14.23
1002.734	14.48
1003.158	14.4
1003.582	14.29
1004.005	14.25
1004.429	14.17
1004.852	14.26
1005.275	14.05
1005.699	14.04
1006.122	14.34
1006.546	14.4
1006.969	14.34
1007.392	14.43
1007.815	14.41
1008.239	14.36
1008.662	14.51
1009.085	14.36
1009.508	14.13
1009.931	14.27
1010.354	14.14
1010.778	14.11
1011.201	14.38
1011.624	14.38
1012.047	14.32
1012.469	14.16
1012.892	14.33
1013.315	14.36
1013.738	14.32
1014.161	14.68
1014.584	14.5
1015.007	14.13
1015.429	14.32
1015.852	14.6
1016.275	14.28
1016.697	14.46
1017.12	14.5
1017.543	14.22
1017.965	14.59
1018.388	14.54
1018.81	14.68
1019.233	14.14
1019.655	14.96
1020.078	14.54
1020.5	14.56
1020.922	14.71
1021.345	14.28
1021.767	14.58
1022.189	14.27
1022.612	14.47
1023.034	14.31
1023.456	14.27
1023.878	14.88
1024.301	14.26
1024.723	14.19
1025.145	14.66
1025.567	14.24
1025.989	14.39
1026.411	14.48
1026.833	14.72
1027.255	14.49
1027.677	14.62
1028.099	14.52
1028.52	14.34
1028.942	14.65
1029.364	14.28
1029.786	14.41
1030.208	14.62
1030.629	14.38
1031.051	14.61
1031.473	14.58
1031.894	14.13
1032.316	14.99
1032.738	14.68
1033.159	14.29
1033.581	14.58
1034.002	14.41
1034.424	14.42
1034.845	14.37
1035.267	14.8
1035.688	14.6
1036.109	14.49
1036.531	14.52
1036.952	14.52
1037.373	14.55
1037.794	14.35
1038.216	14.9
1038.637	14.66
1039.058	14.21
1039.479	14.75
1039.9	14.65
1040.321	14.46
1040.742	14.76
1041.163	14.78
1041.584	14.3
1042.005	14.57
1042.426	14.54
1042.847	14.6
1043.268	14.36
1043.689	14.38
1044.11	14.69
1044.53	14.24
1044.951	15.22
1045.372	15.04
1045.793	15.15
1046.213	14.46
1046.634	15.03
1047.055	14.57
1047.475	14.56
1047.896	14.81
1048.316	14.77
1048.737	14.06
1049.157	14.48
1049.578	14.93
1049.998	15.37
1050.419	14.41
1050.839	14.67
1051.259	14.89
1051.68	15.21
1052.1	14.82
1052.52	14.48
1052.94	14.9
1053.361	15.02
1053.781	14.15
1054.201	14.38
1054.621	14.59
1055.041	15.2
1055.461	14.33
1055.881	14.02
1056.301	14.97
1056.721	14.19
1057.141	14.81
1057.561	14.31
1057.981	14.01
1058.401	14.49
1058.82	14.75
1059.24	14.22
1059.66	15.42
1060.08	14.79
1060.499	14.06
1060.919	14.48
1061.339	14.28
1061.758	14.22
1062.178	14.89
1062.598	14.33
1063.017	14.78
1063.437	15.12
1063.856	15.07
1064.276	14.67
1064.695	13.58
1065.114	14.68
1065.534	14.48
1065.953	13.98
1066.372	14.74
1066.792	13.92
1067.211	14.55
1067.63	13.78
1068.049	14.05
1068.469	14.24
1068.888	14.89
1069.307	13.85
1069.726	14.96
1070.145	14.27
1070.564	15.19
1070.983	15.5
1071.402	16.06
1071.821	13.11
1072.24	14.36
1072.659	14.32
1073.078	13.42
1073.496	14.4
1073.915	13.73
1074.334	14.19
1074.753	14.07
1075.171	14.65
1075.59	14.13
1076.009	14.77
1076.427	14.45
1076.846	14.55
1077.265	13.92
1077.683	14.34
1078.102	15.16
1078.52	14
1078.939	14.8
1079.357	13.89
1079.776	13.6
1080.194	15.2
1080.612	14.23
1081.031	14.74
1081.449	14.12
1081.867	14.32
1082.285	15.33
1082.704	14.6
1083.122	14.05
1083.54	13.46
1083.958	15.31
1084.376	14.42
1084.794	13.84
1085.212	14.59
1085.63	14
1086.048	14.21
1086.466	14.98
1086.884	14.1
1087.302	14.42
1087.72	13.19
1088.138	14.47
1088.555	14.81
1088.973	14.79
1089.391	14.07
1089.809	14.13
1090.226	14.86
1090.644	14.83
1091.062	14.1
1091.479	14.15
1091.897	13.6
1092.314	14.09
1092.732	14.03
1093.15	13.8
1093.567	14.26
1093.984	14.2
1094.402	14.66
1094.819	12.62
1095.237	14.25
1095.654	13.97
1096.071	14.37
1096.488	12.59
1096.906	13.69
1097.323	14.25
1097.74	14.52
1098.157	14.29
1098.574	15.27
1098.991	13.78
1099.409	14.64
1099.826	13.32
1100.243	12.94
1100.66	14.61
1101.077	14.58
1101.494	14.74
1101.91	14.85
1102.327	12.98
1102.744	14.4
1103.161	12.78
1103.578	13.1
1103.994	13.5
1104.411	14.61
1104.828	13.99
1105.245	12.43
1105.661	12.63
1106.078	13.61
1106.494	13.39
1106.911	16.46
1107.328	13.66
1107.744	11.62
1108.161	13.53
1108.577	13.06
1108.993	13.4
1109.41	14.94
1109.826	14.92
1110.242	11.51
1110.659	14.08
1111.075	13.4
1111.491	15.1
1111.908	11.8
1112.324	15.89
1112.74	-4.31
1113.156	14.33
1113.572	16.46
1113.988	16.98
1114.404	12.14
1114.82	13.8
1115.236	12.22
1115.652	16.1
1116.068	11.22
1116.484	16.94
1116.9	6.9
1117.316	16.16
1117.732	-66.67
1118.147	-59.26
1118.563	12.12
1118.979	-59.26
