Data from JCR0018_SupralabialBlack_Reflection_00002.txt Node
Date: Thu Jul 23 16:35:39 ACST 2020
User: Stacey Dix
Spectrometer: MAYP113282
Scans to average: 1
Trigger mode: 0
Integration Time (sec): 1.000000E-1
Electric dark correction enabled: true
Boxcar width: 0
XAxis mode: Wavelengths
Number of Pixels in Spectrum: 2068
>>>>>Begin Spectral Data<<<<<
198.791	-308.33
199.266	-16.67
199.74	91.67
200.215	0
200.69	3.88
201.164	-3.05
201.639	-5.68
202.114	4.32
202.588	-5.56
203.063	4.46
203.537	18.03
204.012	9.26
204.486	-4.21
204.961	12.46
205.435	-2.08
205.909	7.12
206.384	5.14
206.858	-6.7
207.332	4.59
207.807	9.94
208.281	19.28
208.755	-2.35
209.229	-9.8
209.703	13.62
210.177	-3.09
210.651	-7.81
211.126	13.21
211.6	-3.4
212.074	4.62
212.548	16.26
213.021	7.73
213.495	17.61
213.969	2.51
214.443	-0.66
214.917	10.89
215.391	4.08
215.864	-12.89
216.338	3.78
216.812	9.93
217.286	2.93
217.759	9.55
218.233	11.87
218.706	7.51
219.18	1.15
219.654	-3.48
220.127	-0.06
220.6	-1.21
221.074	1.67
221.547	10.77
222.021	-2.25
222.494	-5.88
222.967	1.53
223.441	-4.8
223.914	3.03
224.387	-2.03
224.86	5.23
225.334	-1.13
225.807	2.92
226.28	1.24
226.753	1.17
227.226	2.72
227.699	2.85
228.172	2.14
228.645	2.48
229.118	2.11
229.591	-0.27
230.064	0.21
230.537	1.4
231.01	0.93
231.482	0.57
231.955	-0.3
232.428	1.66
232.901	-1.38
233.373	2.69
233.846	-0.78
234.319	1.79
234.791	-0.23
235.264	-0.28
235.736	1.22
236.209	0.81
236.681	-0.55
237.154	1.22
237.626	1.59
238.099	0.43
238.571	2.57
239.044	0.94
239.516	0.92
239.988	0.81
240.46	1.62
240.933	1.03
241.405	0.69
241.877	0.17
242.349	0.9
242.821	1
243.293	1.14
243.765	1.14
244.237	1.08
244.71	1.74
245.181	0.61
245.653	0.67
246.125	1.19
246.597	0.86
247.069	0.58
247.541	1.58
248.013	1.26
248.485	1.46
248.956	1.56
249.428	-0.01
249.9	1.32
250.371	1.95
250.843	0.21
251.315	0.06
251.786	1.5
252.258	0.31
252.729	0.36
253.201	1.44
253.672	0.36
254.144	0.64
254.615	0.36
255.086	0.56
255.558	0.97
256.029	0.41
256.5	0.23
256.972	0.15
257.443	0.58
257.914	0.66
258.385	0.74
258.856	1.59
259.327	0.35
259.799	0.63
260.27	0.59
260.741	0.69
261.212	0.28
261.683	0.6
262.154	0.58
262.624	0.27
263.095	0.68
263.566	1.29
264.037	0.83
264.508	-0.49
264.979	0.62
265.449	0.65
265.92	0.57
266.391	0.92
266.861	0.67
267.332	0.08
267.803	0.52
268.273	0.89
268.744	0.17
269.214	0.17
269.685	0.64
270.155	0.12
270.626	0.9
271.096	0.45
271.566	1.31
272.037	0.48
272.507	0.52
272.977	-0.33
273.448	0.07
273.918	1.31
274.388	0.55
274.858	0.25
275.328	0.55
275.798	0.56
276.268	0.22
276.738	1.18
277.208	0.26
277.678	0.42
278.148	-0.31
278.618	-0.43
279.088	0.55
279.558	0.14
280.028	0.36
280.498	0.8
280.968	0.82
281.437	0.98
281.907	0.69
282.377	0.38
282.847	0.45
283.316	0.87
283.786	-0.1
284.255	-0.27
284.725	0.7
285.194	0.98
285.664	0.88
286.133	-0.06
286.603	0.51
287.072	0.34
287.542	1
288.011	0.05
288.48	0.2
288.95	0.84
289.419	0.65
289.888	-0.5
290.357	0.78
290.827	0.81
291.296	0.48
291.765	0.76
292.234	1.01
292.703	0.65
293.172	-0.06
293.641	0.31
294.11	0.2
294.579	0.85
295.048	1.41
295.517	0.43
295.986	0.23
296.455	0.59
296.923	-0.16
297.392	0.21
297.861	-0.07
298.33	0.24
298.798	-0.13
299.267	0.94
299.736	1
300.204	-0.13
300.673	0.91
301.141	-0.1
301.61	0.77
302.079	0.43
302.547	0.72
303.015	0.7
303.484	0.09
303.952	1.19
304.421	0.27
304.889	0.67
305.357	0.57
305.825	-0.44
306.294	0.71
306.762	1.26
307.23	0.22
307.698	1.07
308.166	0.12
308.634	0.79
309.103	0.34
309.571	1.26
310.039	0.54
310.507	0.2
310.975	0.44
311.442	0.19
311.91	-0.06
312.378	0.39
312.846	0.76
313.314	0.87
313.782	1.02
314.249	0.97
314.717	0.48
315.185	0.43
315.652	0.25
316.12	0.7
316.588	1.06
317.055	0.44
317.523	1.04
317.99	0.41
318.458	1.01
318.925	0.57
319.393	0.78
319.86	0.54
320.328	0.96
320.795	0.58
321.262	1.14
321.73	1.18
322.197	0.66
322.664	0.18
323.131	0.91
323.598	0.82
324.066	1.65
324.533	0.63
325	0.97
325.467	1.33
325.934	0.98
326.401	0.56
326.868	1.05
327.335	1.56
327.802	1.48
328.269	1.9
328.735	1.67
329.202	1.83
329.669	1.58
330.136	2.64
330.603	1.97
331.069	1.56
331.536	2.74
332.003	1.69
332.469	2.96
332.936	2.75
333.402	2.22
333.869	2.73
334.336	2.2
334.802	2.9
335.268	3.04
335.735	2.53
336.201	2.64
336.668	3.18
337.134	2.74
337.6	3.26
338.067	2.95
338.533	2.9
338.999	3.06
339.465	3.23
339.931	3.45
340.398	3.12
340.864	3.53
341.33	2.92
341.796	3.32
342.262	3.39
342.728	2.92
343.194	3.13
343.66	3.32
344.126	3.73
344.592	2.52
345.057	3.82
345.523	3.02
345.989	3.52
346.455	3.26
346.921	3.51
347.386	3.57
347.852	3.14
348.318	3.49
348.783	3.11
349.249	3.38
349.714	3.63
350.18	3.39
350.645	2.56
351.111	3.26
351.576	3.71
352.042	2.73
352.507	3.36
352.973	2.49
353.438	3.3
353.903	2.95
354.369	2.95
354.834	3.06
355.299	3.73
355.764	2.82
356.229	3.28
356.695	2.68
357.16	3.11
357.625	3.01
358.09	3.15
358.555	3.12
359.02	3.17
359.485	3.42
359.95	3.45
360.415	3.84
360.879	3.14
361.344	3.18
361.809	3.26
362.274	2.61
362.739	2.49
363.203	3.35
363.668	3.74
364.133	3.07
364.597	3.34
365.062	3.1
365.527	2.24
365.991	3.78
366.456	3.2
366.92	2.66
367.385	2.92
367.849	3.12
368.314	2.13
368.778	3.89
369.242	2.93
369.707	2.81
370.171	3.81
370.635	2.29
371.1	3.37
371.564	3.05
372.028	3.57
372.492	3.43
372.956	3.19
373.42	2.55
373.884	3.7
374.348	3.53
374.812	3.02
375.276	3.24
375.74	3.13
376.204	3.62
376.668	2.93
377.132	3.04
377.596	3.67
378.06	2.78
378.524	3.16
378.987	2.53
379.451	3.34
379.915	2.77
380.378	3.35
380.842	2.43
381.306	3.18
381.769	3.54
382.233	3.92
382.696	2.78
383.16	3.26
383.623	3.48
384.087	2.73
384.55	3.17
385.014	3.9
385.477	2.94
385.94	3.46
386.404	3.49
386.867	3.12
387.33	3.75
387.793	3.82
388.256	2.87
388.72	3.66
389.183	3.38
389.646	3.24
390.109	3.4
390.572	3.55
391.035	2.94
391.498	3.51
391.961	3.05
392.424	3.33
392.887	3.02
393.35	3.22
393.812	3.42
394.275	3.26
394.738	3.5
395.201	3.22
395.664	2.87
396.126	3.11
396.589	3.82
397.052	3.26
397.514	3.11
397.977	2.93
398.439	3.77
398.902	2.82
399.364	2.86
399.827	3.32
400.289	3.91
400.752	2.73
401.214	2.77
401.676	3.29
402.139	3.44
402.601	2.92
403.063	3.43
403.525	2.58
403.988	2.9
404.45	2.75
404.912	3.14
405.374	2.14
405.836	3.29
406.298	3.09
406.76	3.06
407.222	3.17
407.684	2.49
408.146	3.51
408.608	3.56
409.07	3.54
409.532	2.64
409.994	3.31
410.456	3.02
410.917	3.13
411.379	3.13
411.841	3.02
412.303	3.45
412.764	2.27
413.226	2.78
413.687	3.2
414.149	2.75
414.611	3.04
415.072	2.94
415.534	2.78
415.995	2.55
416.457	2.62
416.918	2.97
417.379	2.05
417.841	2.69
418.302	3.58
418.763	3
419.225	3.67
419.686	3.6
420.147	3.2
420.608	2.99
421.069	2.73
421.53	2.55
421.991	3.31
422.453	2.9
422.914	2.95
423.375	3.07
423.836	2.76
424.297	3.74
424.757	2.88
425.218	2.81
425.679	2.59
426.14	4.25
426.601	2.99
427.062	3.1
427.522	2.42
427.983	2.9
428.444	4.32
428.904	2.8
429.365	2.35
429.826	4.25
430.286	3.23
430.747	4.07
431.207	3
431.668	3.57
432.128	3.72
432.589	2.27
433.049	3.96
433.509	4.04
433.97	3.62
434.43	3.35
434.89	3.07
435.351	4
435.811	3.3
436.271	2.61
436.731	5.14
437.191	3.48
437.651	2.78
438.112	4.22
438.572	1.98
439.032	2.88
439.492	4.86
439.952	4.29
440.412	4.51
440.871	3.69
441.331	3.82
441.791	3.52
442.251	4.7
442.711	4.81
443.171	4.19
443.63	3.12
444.09	3.1
444.55	4.14
445.009	3.7
445.469	4.63
445.929	3.39
446.388	4.01
446.848	4.07
447.307	3.37
447.767	3.69
448.226	2.81
448.686	3.5
449.145	4.06
449.604	4.58
450.064	4.35
450.523	3.99
450.982	3.27
451.442	3.58
451.901	3.89
452.36	3.62
452.819	3.18
453.278	4.21
453.737	4.18
454.197	3.21
454.656	3.54
455.115	3.22
455.574	3.58
456.033	4.72
456.492	4.14
456.95	3.22
457.409	3.86
457.868	4.2
458.327	3.27
458.786	3.28
459.245	2.94
459.703	3.89
460.162	4.34
460.621	4.11
461.079	3.42
461.538	3.32
461.997	3.3
462.455	4.02
462.914	3.74
463.372	4.55
463.831	4.21
464.289	2.65
464.748	4.1
465.206	4.16
465.664	4.08
466.123	4.11
466.581	3.79
467.039	5.51
467.497	3.34
467.956	4.19
468.414	3.66
468.872	4.24
469.33	4.14
469.788	4.23
470.246	3.54
470.704	3.73
471.162	4.01
471.62	3.28
472.078	2.95
472.536	4.59
472.994	4.37
473.452	3.99
473.91	4.12
474.368	4.52
474.826	5.18
475.283	3.31
475.741	3.45
476.199	4.89
476.656	3.76
477.114	3.47
477.572	3.21
478.029	2.68
478.487	4.36
478.944	3.01
479.402	3.91
479.859	4.03
480.317	3.82
480.774	6.06
481.232	4.14
481.689	3.96
482.146	4.99
482.604	3.48
483.061	3.84
483.518	4.78
483.975	5.36
484.433	2.84
484.89	4.59
485.347	5.37
485.804	4.43
486.261	2.06
486.718	4.29
487.175	3.98
487.632	4.05
488.089	2.89
488.546	4.24
489.003	4.93
489.46	4.73
489.917	4.5
490.373	5.01
490.83	3.72
491.287	4.79
491.744	4.49
492.2	3.96
492.657	4.54
493.114	4.01
493.57	3.59
494.027	5.09
494.484	3.79
494.94	4.23
495.397	4.63
495.853	4.7
496.31	4.18
496.766	4.31
497.222	5.06
497.679	3.93
498.135	5.06
498.591	5.16
499.048	4.69
499.504	3.93
499.96	4.92
500.416	6.19
500.872	5.87
501.329	5.42
501.785	5.44
502.241	5.14
502.697	4.34
503.153	4.78
503.609	5.1
504.065	4.06
504.521	5.29
504.977	4.65
505.432	4.78
505.888	6.65
506.344	3.52
506.8	6.19
507.256	4.73
507.711	5.85
508.167	4.62
508.623	4.2
509.078	5.56
509.534	5.16
509.99	5.54
510.445	4.48
510.901	5.22
511.356	5.68
511.812	5.59
512.267	4.55
512.722	5.66
513.178	6.45
513.633	5.14
514.089	4.75
514.544	5.75
514.999	4.88
515.454	5.18
515.91	5.45
516.365	5.38
516.82	5.5
517.275	5.89
517.73	5.44
518.185	5.17
518.64	5.5
519.095	5.08
519.55	5.77
520.005	5.05
520.46	6.86
520.915	5.66
521.37	6.17
521.825	5.24
522.28	4.65
522.734	5.51
523.189	5.68
523.644	5.86
524.099	5.01
524.553	5.48
525.008	6.29
525.462	6.53
525.917	5.7
526.372	5.22
526.826	6.25
527.281	4.99
527.735	5.61
528.19	6.06
528.644	6.37
529.098	5.97
529.553	6.43
530.007	6.59
530.461	4.97
530.916	5
531.37	6.56
531.824	5.19
532.278	5.9
532.732	6.33
533.186	6.43
533.641	5.7
534.095	5.97
534.549	6.08
535.003	5.55
535.457	5.69
535.911	5.8
536.365	6.16
536.818	6.46
537.272	5.03
537.726	5.92
538.18	5.85
538.634	5.86
539.087	5.37
539.541	6.56
539.995	4.96
540.449	7.13
540.902	6.73
541.356	6.54
541.809	4.43
542.263	4.83
542.716	6.13
543.17	5.84
543.623	5.87
544.077	5.7
544.53	5.68
544.984	6.67
545.437	5.69
545.89	5.72
546.344	6.48
546.797	5.4
547.25	6.54
547.703	5.46
548.157	6.16
548.61	4.86
549.063	6.11
549.516	5.69
549.969	6.39
550.422	6.24
550.875	5.13
551.328	5.52
551.781	6.46
552.234	6.86
552.687	6.44
553.14	5.75
553.592	5.97
554.045	5.93
554.498	5.83
554.951	5.96
555.404	6.46
555.856	5.95
556.309	6.81
556.762	5.92
557.214	5.85
557.667	6.27
558.119	6.97
558.572	5.97
559.024	6.55
559.477	6.89
559.929	7.1
560.382	6.88
560.834	6.61
561.286	6.7
561.739	6.11
562.191	6.67
562.643	6.49
563.095	7.64
563.548	5.97
564	7.08
564.452	6.94
564.904	6.81
565.356	6.97
565.808	6.72
566.26	6.49
566.712	6.65
567.164	6.9
567.616	7.37
568.068	6.51
568.52	7.66
568.972	7.73
569.424	6.27
569.876	6.63
570.327	6.23
570.779	7.11
571.231	7.3
571.682	6.79
572.134	5.88
572.586	7.35
573.037	6.76
573.489	7.06
573.941	6.86
574.392	6.91
574.844	6.8
575.295	6
575.746	7.03
576.198	6.42
576.649	7.08
577.101	6.93
577.552	6.55
578.003	6.77
578.454	6.74
578.906	6.44
579.357	6.25
579.808	7.82
580.259	7.14
580.71	7.33
581.161	7.07
581.612	6.91
582.064	7.02
582.515	6.82
582.965	7.9
583.416	7.27
583.867	6.93
584.318	7.69
584.769	7.28
585.22	6.89
585.671	7.51
586.122	6.68
586.572	7.24
587.023	7.32
587.474	7.49
587.924	7.01
588.375	6.95
588.826	6.5
589.276	6.83
589.727	8.1
590.177	8.01
590.628	7.45
591.078	7.39
591.529	7.16
591.979	7.31
592.429	8.02
592.88	6.75
593.33	7.98
593.78	8.2
594.231	7.18
594.681	7.52
595.131	7.28
595.581	7.63
596.031	7.24
596.481	8.24
596.932	7.64
597.382	8.03
597.832	7.69
598.282	8.33
598.732	7.26
599.182	7.16
599.632	7.29
600.081	7.26
600.531	7.57
600.981	7.89
601.431	7.34
601.881	7.71
602.33	7.52
602.78	8
603.23	8.02
603.679	7.53
604.129	7.97
604.579	8.11
605.028	7.55
605.478	8.07
605.927	8.05
606.377	8.58
606.826	7.65
607.276	8.11
607.725	8.33
608.175	8.65
608.624	7.67
609.073	8.11
609.522	7.89
609.972	7.64
610.421	8.24
610.87	7.72
611.319	7.82
611.768	7.42
612.218	7.66
612.667	8.73
613.116	8.91
613.565	8.29
614.014	8.08
614.463	8.62
614.912	8.04
615.361	8.4
615.81	8.72
616.258	8.14
616.707	8.11
617.156	8.32
617.605	7.97
618.054	8.47
618.502	9.51
618.951	7.45
619.4	8.52
619.848	8.42
620.297	8.74
620.745	8.45
621.194	8.43
621.642	7.97
622.091	8.57
622.539	8.12
622.988	8.3
623.436	8.21
623.885	9.07
624.333	8.06
624.781	8.9
625.23	8.62
625.678	8.69
626.126	8.59
626.574	8.48
627.022	8.58
627.471	8.01
627.919	8.16
628.367	8.49
628.815	8.74
629.263	8.38
629.711	8.44
630.159	8.78
630.607	8.51
631.055	8.41
631.503	8.62
631.95	8.54
632.398	8.85
632.846	8.81
633.294	8.49
633.742	8.78
634.189	8.44
634.637	9.18
635.085	8.43
635.532	8.64
635.98	9.21
636.427	8.58
636.875	9.08
637.323	8.75
637.77	8.77
638.217	8.59
638.665	8.59
639.112	8.95
639.56	8.84
640.007	8.79
640.454	8.89
640.902	9.06
641.349	9.25
641.796	8.95
642.243	8.78
642.69	8.89
643.138	9.4
643.585	8.66
644.032	8.81
644.479	8.69
644.926	9.12
645.373	9.33
645.82	8.99
646.267	8.78
646.714	8.74
647.161	9.17
647.607	9.15
648.054	8.83
648.501	8.81
648.948	8.97
649.395	9.47
649.841	9.35
650.288	9.24
650.735	9.01
651.181	9.31
651.628	9.39
652.075	9.66
652.521	9.39
652.968	9.49
653.414	9.11
653.861	9.59
654.307	9.44
654.753	9.66
655.2	9.32
655.646	9.48
656.092	9.55
656.539	9.39
656.985	9.9
657.431	9.24
657.877	9.6
658.324	9.1
658.77	9.95
659.216	10.03
659.662	10.05
660.108	9.3
660.554	9.77
661	9.82
661.446	9.52
661.892	9.84
662.338	9.2
662.784	10.25
663.23	9.8
663.675	9.5
664.121	9.85
664.567	9.76
665.013	9.46
665.458	9.49
665.904	9.75
666.35	9.71
666.795	9.79
667.241	10.15
667.687	9.72
668.132	9.92
668.578	9.91
669.023	10.16
669.469	9.36
669.914	9.8
670.359	9.53
670.805	9.56
671.25	9.9
671.695	9.77
672.141	9.83
672.586	9.9
673.031	10.86
673.476	9.88
673.922	10.34
674.367	9.62
674.812	10.08
675.257	9.72
675.702	9.38
676.147	10.02
676.592	9.81
677.037	10.19
677.482	10
677.927	9.92
678.372	10.04
678.817	10.51
679.261	10.16
679.706	10.06
680.151	10.5
680.596	10.22
681.04	10.29
681.485	10.47
681.93	9.74
682.374	10.22
682.819	10.12
683.264	10.24
683.708	10.43
684.153	10.19
684.597	10.29
685.042	10.22
685.486	10.35
685.93	10.47
686.375	10.64
686.819	10.3
687.263	10.34
687.708	10.37
688.152	10.57
688.596	10.29
689.04	10.42
689.485	10.91
689.929	10.56
690.373	10.66
690.817	10.55
691.261	10.54
691.705	10.7
692.149	10.52
692.593	10.52
693.037	10.39
693.481	10.61
693.925	10.54
694.369	10.27
694.812	10.02
695.256	10.56
695.7	11.17
696.144	10.22
696.587	10.36
697.031	11.04
697.475	11.03
697.918	10.16
698.362	10.71
698.806	10.86
699.249	10.33
699.693	10.81
700.136	10.56
700.58	10.93
701.023	11.08
701.466	11.07
701.91	11.01
702.353	10.64
702.796	11.16
703.24	10.73
703.683	11.25
704.126	10.97
704.569	10.53
705.013	11.45
705.456	10.61
705.899	11.13
706.342	10.87
706.785	10.9
707.228	10.97
707.671	10.99
708.114	11.28
708.557	11.08
709	11.1
709.443	11.14
709.886	10.96
710.328	11.18
710.771	10.96
711.214	11.43
711.657	11.1
712.099	11.11
712.542	11.13
712.985	11.16
713.427	10.73
713.87	11.54
714.313	11.12
714.755	11.32
715.198	11.24
715.64	10.95
716.083	11.72
716.525	10.97
716.967	11.89
717.41	11.07
717.852	11.18
718.295	11.34
718.737	11.32
719.179	11.61
719.621	11.68
720.063	11.47
720.506	11.45
720.948	11.58
721.39	11.79
721.832	11.87
722.274	11.62
722.716	11.77
723.158	11.81
723.6	11.51
724.042	11.54
724.484	11.57
724.926	12
725.368	11.29
725.81	11.34
726.251	11.6
726.693	11.61
727.135	11.77
727.577	11.63
728.018	11.65
728.46	11.33
728.902	11.38
729.343	11.65
729.785	12.1
730.226	11.83
730.668	11.59
731.109	11.6
731.551	11.32
731.992	11.72
732.434	11.79
732.875	11.89
733.316	11.71
733.758	11.7
734.199	11.53
734.64	11.21
735.081	11.44
735.523	11.68
735.964	11.88
736.405	11.55
736.846	12.02
737.287	11.69
737.728	11.98
738.169	12.23
738.61	12.07
739.051	12.29
739.492	11.76
739.933	12.04
740.374	11.8
740.815	12.01
741.256	11.78
741.696	12.21
742.137	12.05
742.578	12.15
743.019	12.15
743.459	11.68
743.9	12.28
744.341	12.04
744.781	12.09
745.222	11.81
745.662	12.19
746.103	12.22
746.543	11.7
746.984	12.43
747.424	12.53
747.865	12.24
748.305	11.84
748.745	12.46
749.186	12.02
749.626	12.09
750.066	12.18
750.506	12.25
750.947	12.54
751.387	12.59
751.827	12.28
752.267	12.43
752.707	12.54
753.147	12.58
753.587	12.91
754.027	12.02
754.467	12.29
754.907	12.77
755.347	12.15
755.787	12.17
756.227	12.16
756.667	13.14
757.107	12.91
757.546	12.41
757.986	12.62
758.426	12.41
758.865	12.31
759.305	12.99
759.745	12.72
760.184	13.06
760.624	12.77
761.063	12.46
761.503	12.58
761.943	12.88
762.382	12.34
762.821	12.84
763.261	12.9
763.7	13.01
764.14	12.82
764.579	12.69
765.018	12.53
765.457	12.37
765.897	12.77
766.336	13.04
766.775	12.59
767.214	12.96
767.653	12.78
768.092	13.05
768.531	13.13
768.97	12.59
769.409	13.19
769.848	13.16
770.287	12.79
770.726	12.97
771.165	13.28
771.604	13.12
772.043	12.95
772.482	13.41
772.92	13.29
773.359	13.12
773.798	12.98
774.237	12.84
774.675	13.44
775.114	13.09
775.553	13.71
775.991	13.51
776.43	13.46
776.868	13.07
777.307	13.55
777.745	13.06
778.184	13.64
778.622	13.57
779.06	13.31
779.499	13.07
779.937	13.26
780.375	12.96
780.814	13.55
781.252	13.37
781.69	13.79
782.128	13.38
782.566	13.83
783.004	13.64
783.443	13.43
783.881	13.5
784.319	14.17
784.757	13.54
785.195	13.4
785.633	13.32
786.071	13.76
786.508	13.65
786.946	13.72
787.384	13.69
787.822	13.48
788.26	13.5
788.697	13.57
789.135	13.54
789.573	13.84
790.011	13.27
790.448	14.16
790.886	14.03
791.323	13.59
791.761	13.71
792.198	13.65
792.636	13.68
793.073	14
793.511	14
793.948	14.05
794.386	14.25
794.823	14.01
795.26	13.8
795.698	13.72
796.135	14.05
796.572	13.77
797.009	13.84
797.446	14.14
797.884	14.23
798.321	14.14
798.758	13.88
799.195	14.18
799.632	13.76
800.069	14.18
800.506	13.87
800.943	13.88
801.38	14.01
801.817	14.04
802.254	14.15
802.69	13.7
803.127	14.2
803.564	13.96
804.001	14.51
804.438	14.1
804.874	14.44
805.311	13.93
805.748	14.27
806.184	14.15
806.621	14.44
807.057	14.65
807.494	14.2
807.93	14.43
808.367	14.28
808.803	14.29
809.24	14.32
809.676	14.25
810.112	14.25
810.549	14.16
810.985	14.51
811.421	14.41
811.857	14.68
812.294	14.14
812.73	14.77
813.166	14.72
813.602	14.69
814.038	14.64
814.474	14.43
814.91	14.94
815.346	14.65
815.782	14.39
816.218	14.18
816.654	14.62
817.09	14.54
817.526	14.47
817.962	14.65
818.398	14.77
818.833	14.91
819.269	14.48
819.705	14.76
820.141	14.94
820.576	14.68
821.012	15.12
821.447	14.99
821.883	15.12
822.319	15.33
822.754	14.91
823.19	14.56
823.625	14.78
824.061	14.88
824.496	15.14
824.931	15.16
825.367	14.7
825.802	14.87
826.237	15.06
826.673	14.97
827.108	14.9
827.543	15.04
827.978	14.73
828.413	15.13
828.849	14.9
829.284	15.27
829.719	15.11
830.154	15.11
830.589	15.63
831.024	15.21
831.459	14.81
831.894	15.06
832.329	15.1
832.763	15.5
833.198	15.21
833.633	15.32
834.068	15.13
834.503	15.32
834.937	15.27
835.372	15.64
835.807	15.1
836.241	15.34
836.676	15.63
837.111	15.02
837.545	15.02
837.98	15.58
838.414	15.37
838.849	15.26
839.283	15.87
839.717	15.6
840.152	15.36
840.586	15.49
841.021	15.62
841.455	15.44
841.889	15.55
842.323	15.49
842.758	15.45
843.192	15.29
843.626	15.59
844.06	15.68
844.494	15.55
844.928	15.51
845.362	15.76
845.796	15.5
846.23	15.7
846.664	15.59
847.098	15.68
847.532	15.83
847.966	15.6
848.4	15.92
848.834	16.12
849.267	15.46
849.701	15.73
850.135	15.63
850.569	16.13
851.002	15.81
851.436	15.67
851.87	15.71
852.303	16.01
852.737	15.89
853.17	16.02
853.604	16.16
854.037	16.25
854.471	15.97
854.904	16.23
855.337	16.17
855.771	16.07
856.204	15.83
856.637	16.02
857.071	15.99
857.504	16.25
857.937	15.93
858.37	16.04
858.804	16.36
859.237	16.26
859.67	16.24
860.103	16.43
860.536	16.26
860.969	15.9
861.402	16.05
861.835	16.55
862.268	16.25
862.701	16.05
863.134	16.33
863.566	16.24
863.999	16.55
864.432	16.3
864.865	16.53
865.298	16.37
865.73	16.45
866.163	16.74
866.596	16.29
867.028	16.55
867.461	16.38
867.893	16.49
868.326	16.48
868.758	16.46
869.191	16.5
869.623	16.54
870.056	16.53
870.488	16.69
870.92	16.74
871.353	16.27
871.785	16.72
872.217	16.78
872.65	16.57
873.082	16.61
873.514	16.95
873.946	16.45
874.378	16.57
874.81	16.72
875.243	16.59
875.675	16.51
876.107	16.63
876.539	16.57
876.971	16.92
877.403	17.01
877.834	16.76
878.266	16.89
878.698	16.59
879.13	16.79
879.562	17.03
879.994	17.14
880.425	16.81
880.857	16.9
881.289	16.87
881.72	17.16
882.152	17.15
882.584	16.88
883.015	16.95
883.447	16.86
883.878	17.14
884.31	17.11
884.741	16.65
885.173	16.89
885.604	16.79
886.035	16.79
886.467	17.06
886.898	16.97
887.329	17.18
887.76	17.1
888.192	17.13
888.623	16.91
889.054	17.15
889.485	17.23
889.916	16.91
890.347	17.11
890.778	17.16
891.209	17.02
891.64	17.5
892.071	17.22
892.502	17.41
892.933	17.25
893.364	17.05
893.795	17.24
894.226	17
894.657	17.32
895.087	17.31
895.518	17.05
895.949	17.68
896.38	17.42
896.81	17.43
897.241	17.42
897.671	17.72
898.102	17.37
898.533	17.93
898.963	17.39
899.394	17.54
899.824	17.78
900.254	17.43
900.685	17.72
901.115	17.56
901.546	17.48
901.976	17.59
902.406	17.95
902.836	17.63
903.267	17.56
903.697	17.48
904.127	17.71
904.557	17.72
904.987	17.56
905.417	17.72
905.847	17.63
906.277	17.65
906.707	17.73
907.137	17.57
907.567	17.91
907.997	17.58
908.427	18.04
908.857	17.91
909.287	17.7
909.717	17.72
910.146	17.99
910.576	17.8
911.006	17.78
911.436	17.52
911.865	18.06
912.295	17.87
912.724	17.83
913.154	18
913.584	17.84
914.013	18.22
914.443	18.37
914.872	18.03
915.302	17.98
915.731	18.13
916.16	18.26
916.59	18.11
917.019	18.05
917.448	17.99
917.878	18.18
918.307	18.04
918.736	17.91
919.165	18.17
919.594	18.15
920.023	18
920.452	18.13
920.882	18.11
921.311	18.36
921.74	18.15
922.169	18.49
922.597	18.24
923.026	17.76
923.455	18.21
923.884	18.1
924.313	18.12
924.742	18.12
925.171	18.33
925.599	18.36
926.028	18.47
926.457	18.59
926.885	18.28
927.314	18.23
927.743	18.52
928.171	18.23
928.6	18.47
929.028	18.25
929.457	18.39
929.885	18.34
930.314	18.36
930.742	18.5
931.17	18.65
931.599	18.53
932.027	18.58
932.455	18.35
932.884	18.34
933.312	18.45
933.74	18.34
934.168	18.36
934.596	18.51
935.025	18.43
935.453	18.19
935.881	18.33
936.309	18.56
936.737	18.48
937.165	18.24
937.593	18.26
938.021	18.4
938.449	18.02
938.876	18.88
939.304	18.67
939.732	18.63
940.16	18.02
940.588	18.69
941.015	18.8
941.443	18.32
941.871	18.75
942.298	18.89
942.726	18.53
943.154	18.3
943.581	18.21
944.009	18.46
944.436	18.6
944.864	18.21
945.291	18.49
945.718	18.39
946.146	18.83
946.573	18.61
947.001	18.91
947.428	18.77
947.855	19.05
948.282	18.55
948.71	18.47
949.137	18.67
949.564	18.66
949.991	18.37
950.418	19.12
950.845	18.69
951.272	18.82
951.699	18.61
952.126	18.87
952.553	18.75
952.98	18.74
953.407	18.9
953.834	19.04
954.261	18.67
954.688	18.92
955.114	18.7
955.541	18.78
955.968	18.91
956.395	18.98
956.821	18.59
957.248	18.79
957.674	18.54
958.101	18.94
958.528	18.47
958.954	19.07
959.381	19.02
959.807	18.81
960.234	18.93
960.66	19.04
961.086	19.14
961.513	18.95
961.939	19.08
962.365	18.62
962.792	18.94
963.218	18.91
963.644	18.84
964.07	18.93
964.496	18.87
964.923	18.93
965.349	18.89
965.775	18.99
966.201	19.06
966.627	19.07
967.053	19.01
967.479	18.68
967.905	19.02
968.331	18.86
968.756	19.06
969.182	19.4
969.608	19.14
970.034	19.13
970.46	19.09
970.885	19.16
971.311	18.99
971.737	19.18
972.162	19.17
972.588	18.94
973.014	19.4
973.439	18.93
973.865	19.31
974.29	18.83
974.716	18.97
975.141	19.31
975.567	19.08
975.992	19.21
976.417	19.04
976.843	19.16
977.268	19.02
977.693	19.29
978.119	19.2
978.544	19.13
978.969	19.12
979.394	19.29
979.819	19.14
980.244	19.1
980.669	19.11
981.095	19.35
981.52	19.35
981.945	19.27
982.369	19.4
982.794	19.29
983.219	19.29
983.644	19.4
984.069	19.18
984.494	19.12
984.919	19.45
985.343	19.3
985.768	19.27
986.193	19.48
986.618	19.44
987.042	19.51
987.467	19.4
987.891	19.25
988.316	19.73
988.741	19.13
989.165	19.36
989.59	19.33
990.014	19.28
990.438	19.54
990.863	19.45
991.287	19.71
991.712	19.25
992.136	19.55
992.56	19.41
992.984	19.64
993.409	19.4
993.833	19.68
994.257	19.48
994.681	19.37
995.105	19.25
995.529	19.48
995.953	19.79
996.377	19.58
996.801	19.66
997.225	19.49
997.649	19.57
998.073	19.58
998.497	19.49
998.921	19.54
999.345	19.31
999.769	19.84
1000.192	19.78
1000.616	19.66
1001.04	20.01
1001.464	19.69
1001.887	19.63
1002.311	19.86
1002.734	20.06
1003.158	19.98
1003.582	19.52
1004.005	20.03
1004.429	19.71
1004.852	19.73
1005.275	20.02
1005.699	19.93
1006.122	19.7
1006.546	19.71
1006.969	19.81
1007.392	19.72
1007.815	20.04
1008.239	19.7
1008.662	19.92
1009.085	19.93
1009.508	19.92
1009.931	19.66
1010.354	19.92
1010.778	20.04
1011.201	19.81
1011.624	19.87
1012.047	19.98
1012.469	19.77
1012.892	19.89
1013.315	20.16
1013.738	20.17
1014.161	19.77
1014.584	20.02
1015.007	19.71
1015.429	19.98
1015.852	19.93
1016.275	20.13
1016.697	19.91
1017.12	19.97
1017.543	19.97
1017.965	19.96
1018.388	20.05
1018.81	20.08
1019.233	20.13
1019.655	20.02
1020.078	20.43
1020.5	20.24
1020.922	20.11
1021.345	20.09
1021.767	19.81
1022.189	19.94
1022.612	20.26
1023.034	20.43
1023.456	20.17
1023.878	20.4
1024.301	20.18
1024.723	20.3
1025.145	20.26
1025.567	20.04
1025.989	20.36
1026.411	20.04
1026.833	20.51
1027.255	20.47
1027.677	20.26
1028.099	20.26
1028.52	20.49
1028.942	20.68
1029.364	20.22
1029.786	19.92
1030.208	20.16
1030.629	20.21
1031.051	20.39
1031.473	20.6
1031.894	20.45
1032.316	20.23
1032.738	20.07
1033.159	20.61
1033.581	20.42
1034.002	20.44
1034.424	20.78
1034.845	20.56
1035.267	20.3
1035.688	20.25
1036.109	20.57
1036.531	20.22
1036.952	20.29
1037.373	20.36
1037.794	20.62
1038.216	20.17
1038.637	20.34
1039.058	20.5
1039.479	20.33
1039.9	20.22
1040.321	20.58
1040.742	20.73
1041.163	20.2
1041.584	20.82
1042.005	20.61
1042.426	20.24
1042.847	20
1043.268	20.51
1043.689	20.57
1044.11	20.69
1044.53	20.62
1044.951	20.62
1045.372	20.68
1045.793	20.56
1046.213	20.38
1046.634	20.36
1047.055	20.62
1047.475	20.71
1047.896	21
1048.316	20.62
1048.737	20.57
1049.157	20.48
1049.578	20.77
1049.998	20.91
1050.419	20.63
1050.839	20.73
1051.259	20.92
1051.68	20.7
1052.1	20.38
1052.52	20.7
1052.94	20.74
1053.361	20.76
1053.781	20.7
1054.201	20.28
1054.621	20.61
1055.041	21
1055.461	20.68
1055.881	20.91
1056.301	21.16
1056.721	20.77
1057.141	20.67
1057.561	20.45
1057.981	20.91
1058.401	20.6
1058.82	21.06
1059.24	20.87
1059.66	20.91
1060.08	20.95
1060.499	21.12
1060.919	20.77
1061.339	20.38
1061.758	20.79
1062.178	20.36
1062.598	20.45
1063.017	21.43
1063.437	20.86
1063.856	20.57
1064.276	20.79
1064.695	20.69
1065.114	20.78
1065.534	20.82
1065.953	20.83
1066.372	20.47
1066.792	20.75
1067.211	20.74
1067.63	20.73
1068.049	20.48
1068.469	20.37
1068.888	21.1
1069.307	20.71
1069.726	21.08
1070.145	20.97
1070.564	20.99
1070.983	20.19
1071.402	21.4
1071.821	20.78
1072.24	21.12
1072.659	21.03
1073.078	20.42
1073.496	21.37
1073.915	20.65
1074.334	20.95
1074.753	20.47
1075.171	20.93
1075.59	20.51
1076.009	20.78
1076.427	20.7
1076.846	20.56
1077.265	21.02
1077.683	20.54
1078.102	20.29
1078.52	20.73
1078.939	20.15
1079.357	20.59
1079.776	20.84
1080.194	19.71
1080.612	21.52
1081.031	20.89
1081.449	21.07
1081.867	19.73
1082.285	20.99
1082.704	20.57
1083.122	21.32
1083.54	20.72
1083.958	20.48
1084.376	21.11
1084.794	20.72
1085.212	21.67
1085.63	19.85
1086.048	20.74
1086.466	20.64
1086.884	21.03
1087.302	19.46
1087.72	20.43
1088.138	21.15
1088.555	20.58
1088.973	20.85
1089.391	20.98
1089.809	19.74
1090.226	20.35
1090.644	20.92
1091.062	20.27
1091.479	21.05
1091.897	20.83
1092.314	19.79
1092.732	20.53
1093.15	20.77
1093.567	20.32
1093.984	21.13
1094.402	22.05
1094.819	20.7
1095.237	19.91
1095.654	20.36
1096.071	20.01
1096.488	19.81
1096.906	20.9
1097.323	20.52
1097.74	21.05
1098.157	20.1
1098.574	20.17
1098.991	20.63
1099.409	19.37
1099.826	20.34
1100.243	21.14
1100.66	20.88
1101.077	19.76
1101.494	20.31
1101.91	20.53
1102.327	19.66
1102.744	19.65
1103.161	20.71
1103.578	18.63
1103.994	20.1
1104.411	21.27
1104.828	21.11
1105.245	20.44
1105.661	21.36
1106.078	20.02
1106.494	21.12
1106.911	18.86
1107.328	18.45
1107.744	20.64
1108.161	19.81
1108.577	18.2
1108.993	18.93
1109.41	19.99
1109.826	20.14
1110.242	19.56
1110.659	20.49
1111.075	20.63
1111.491	18.78
1111.908	20.1
1112.324	20.82
1112.74	18.81
1113.156	18.6
1113.572	18.02
1113.988	18.99
1114.404	19.4
1114.82	18.97
1115.236	16.2
1115.652	16.7
1116.068	19.38
1116.484	17.63
1116.9	21.1
1117.316	17.57
1117.732	-21.79
1118.147	-2.78
1118.563	-29.17
1118.979	83.33
