Data from JCR0018_PreoccularBrown_Reflection_00003.txt Node
Date: Thu Jul 23 16:36:30 ACST 2020
User: Stacey Dix
Spectrometer: MAYP113282
Scans to average: 1
Trigger mode: 0
Integration Time (sec): 1.000000E-1
Electric dark correction enabled: true
Boxcar width: 0
XAxis mode: Wavelengths
Number of Pixels in Spectrum: 2068
>>>>>Begin Spectral Data<<<<<
198.791	-450
199.266	-100
199.74	50
200.215	0
200.69	6.85
201.164	12.68
201.639	9.89
202.114	8.93
202.588	25.81
203.063	-3.49
203.537	10.91
204.012	9.4
204.486	8.08
204.961	7.56
205.435	9.62
205.909	0
206.384	18.05
206.858	8.41
207.332	22.05
207.807	-5.88
208.281	20.15
208.755	3.7
209.229	-3.51
209.703	12.42
210.177	17.78
210.651	-1.4
211.126	25.19
211.6	17.11
212.074	16.22
212.548	15.76
213.021	10.46
213.495	6.38
213.969	6.54
214.443	-5.06
214.917	9.25
215.391	18.23
215.864	8.14
216.338	19.34
216.812	4.17
217.286	-8.54
217.759	17.99
218.233	7
218.706	11.61
219.18	0.81
219.654	1.28
220.127	10.22
220.6	4.2
221.074	6.21
221.547	10.23
222.021	3.45
222.494	0.32
222.967	7.07
223.441	-3.91
223.914	8.75
224.387	3.98
224.86	6.18
225.334	6.14
225.807	3.81
226.28	7.05
226.753	4.61
227.226	5.48
227.699	2.87
228.172	3.72
228.645	2.5
229.118	4.38
229.591	1.61
230.064	0.12
230.537	2.72
231.01	4.31
231.482	3.14
231.955	6.95
232.428	2.83
232.901	3
233.373	3.85
233.846	1.22
234.319	2.59
234.791	1.16
235.264	1.34
235.736	0.13
236.209	3.28
236.681	1.97
237.154	2.99
237.626	1.54
238.099	2.28
238.571	3.1
239.044	2.66
239.516	2.24
239.988	2.69
240.46	2.21
240.933	2.87
241.405	1.39
241.877	1.03
242.349	3.18
242.821	2.71
243.293	1.52
243.765	2.53
244.237	2.5
244.71	1.93
245.181	1.98
245.653	2.41
246.125	1.74
246.597	2.51
247.069	1.62
247.541	2.99
248.013	1.22
248.485	2.43
248.956	2.1
249.428	1.47
249.9	2.09
250.371	2.15
250.843	1.02
251.315	1.57
251.786	2.41
252.258	1.2
252.729	1.56
253.201	1.99
253.672	1.83
254.144	1.32
254.615	0.72
255.086	1.58
255.558	1.97
256.029	0.72
256.5	1.44
256.972	0.92
257.443	1.42
257.914	1.65
258.385	1.86
258.856	1.36
259.327	1.48
259.799	1.85
260.27	1.5
260.741	1.77
261.212	1.38
261.683	1.49
262.154	1.25
262.624	1.47
263.095	1.15
263.566	1.87
264.037	1.69
264.508	0.8
264.979	1.93
265.449	1.49
265.92	1.2
266.391	1.19
266.861	1.08
267.332	1.2
267.803	1.88
268.273	1.4
268.744	1.23
269.214	0.93
269.685	1.41
270.155	1.42
270.626	1.55
271.096	1.48
271.566	1.92
272.037	2.52
272.507	1.34
272.977	0.44
273.448	0.22
273.918	1.61
274.388	1.38
274.858	0.41
275.328	1.51
275.798	0.86
276.268	1.95
276.738	0.67
277.208	1.76
277.678	0.74
278.148	1.37
278.618	0.39
279.088	1.45
279.558	1.07
280.028	1.16
280.498	2.06
280.968	1.48
281.437	1.09
281.907	1.02
282.377	0.57
282.847	1.1
283.316	1.79
283.786	0.09
284.255	0.94
284.725	1.06
285.194	1.04
285.664	1.47
286.133	0.88
286.603	1.09
287.072	1.21
287.542	1.2
288.011	0.99
288.48	1.3
288.95	1.49
289.419	1.11
289.888	1.53
290.357	1.01
290.827	1.19
291.296	0.96
291.765	1.42
292.234	0.96
292.703	1.02
293.172	0.51
293.641	0.87
294.11	1.42
294.579	1.71
295.048	1.5
295.517	1.05
295.986	1.36
296.455	1.22
296.923	0.42
297.392	0.98
297.861	0.86
298.33	1.61
298.798	0.81
299.267	1.98
299.736	0.61
300.204	0.34
300.673	1.1
301.141	1.3
301.61	1.23
302.079	0.96
302.547	1.85
303.015	0.67
303.484	1.69
303.952	1.8
304.421	0.62
304.889	1.44
305.357	1.23
305.825	1.1
306.294	1.08
306.762	1.08
307.23	1.14
307.698	1.59
308.166	0.48
308.634	0.92
309.103	0.87
309.571	1.1
310.039	0.81
310.507	1.16
310.975	1.03
311.442	0.94
311.91	0.46
312.378	0.91
312.846	1.56
313.314	1.36
313.782	0.45
314.249	1.29
314.717	1.32
315.185	1.86
315.652	0.74
316.12	0.94
316.588	1.27
317.055	1.12
317.523	1.01
317.99	1.11
318.458	1.32
318.925	1.24
319.393	1.38
319.86	1.03
320.328	1.28
320.795	0.99
321.262	1.57
321.73	0.82
322.197	1
322.664	1.37
323.131	0.76
323.598	1.59
324.066	1.9
324.533	1.18
325	1.64
325.467	2.4
325.934	1.37
326.401	1.65
326.868	1.47
327.335	1.54
327.802	2.22
328.269	1.67
328.735	2.33
329.202	2.09
329.669	2.03
330.136	1.94
330.603	2.89
331.069	2.83
331.536	2.53
332.003	2.46
332.469	2.86
332.936	3
333.402	2.34
333.869	3.03
334.336	2.81
334.802	2.37
335.268	3.75
335.735	3.58
336.201	3.02
336.668	3.55
337.134	2.59
337.6	2.91
338.067	3.82
338.533	3.24
338.999	2.89
339.465	2.7
339.931	3.92
340.398	3.24
340.864	3.01
341.33	3.67
341.796	2.5
342.262	3.07
342.728	3.47
343.194	3.33
343.66	4.19
344.126	4.15
344.592	3.56
345.057	3.91
345.523	3.83
345.989	3.21
346.455	3.63
346.921	4.41
347.386	4.16
347.852	3.09
348.318	3.26
348.783	3.72
349.249	3.44
349.714	3.52
350.18	4.07
350.645	2.77
351.111	3.35
351.576	3.77
352.042	2.91
352.507	4.04
352.973	3.24
353.438	4.6
353.903	3.77
354.369	3.01
354.834	3.45
355.299	3.17
355.764	3.42
356.229	3.31
356.695	3.81
357.16	3.79
357.625	3.72
358.09	2.6
358.555	4.21
359.02	3.06
359.485	3.9
359.95	3.4
360.415	3.55
360.879	3.45
361.344	3.77
361.809	3.74
362.274	3.42
362.739	3.5
363.203	3.17
363.668	4.18
364.133	3.17
364.597	3.63
365.062	3.35
365.527	3.31
365.991	4.26
366.456	3.33
366.92	3.71
367.385	3.33
367.849	3.25
368.314	3.12
368.778	3.45
369.242	2.32
369.707	3.29
370.171	4.12
370.635	3.12
371.1	2.96
371.564	3.52
372.028	3.04
372.492	3.6
372.956	2.73
373.42	2.98
373.884	3.82
374.348	3.6
374.812	3.47
375.276	3.8
375.74	3.26
376.204	4.13
376.668	3.81
377.132	3.62
377.596	3.39
378.06	3.47
378.524	3.08
378.987	3.29
379.451	3.62
379.915	3.64
380.378	3.63
380.842	3.81
381.306	3.72
381.769	3.23
382.233	3.81
382.696	3.88
383.16	3.46
383.623	4.06
384.087	3.6
384.55	3.91
385.014	3.82
385.477	3.74
385.94	3.89
386.404	3.69
386.867	3.01
387.33	4.55
387.793	3.61
388.256	3.68
388.72	4.75
389.183	3.52
389.646	3.61
390.109	3.5
390.572	3.48
391.035	4.19
391.498	3.66
391.961	3.93
392.424	4.17
392.887	4.06
393.35	3.93
393.812	3.42
394.275	3.58
394.738	4.2
395.201	3.97
395.664	4.17
396.126	3.39
396.589	2.9
397.052	3.38
397.514	4
397.977	3.77
398.439	4.04
398.902	4.24
399.364	3.46
399.827	3.92
400.289	3.75
400.752	3.46
401.214	3.39
401.676	3.73
402.139	3.31
402.601	4.11
403.063	4.11
403.525	3.3
403.988	4.18
404.45	3.93
404.912	4.2
405.374	3.56
405.836	3.75
406.298	4.27
406.76	3.43
407.222	3.98
407.684	3.8
408.146	4.2
408.608	4.21
409.07	4.62
409.532	3.35
409.994	4.06
410.456	4.36
410.917	4.07
411.379	4.47
411.841	3.6
412.303	4.17
412.764	3.88
413.226	3.5
413.687	3.83
414.149	3.59
414.611	4.14
415.072	3.73
415.534	4.49
415.995	4.12
416.457	3.23
416.918	3.78
417.379	3.42
417.841	4.53
418.302	4.13
418.763	3.88
419.225	4.25
419.686	3.31
420.147	4.33
420.608	4.57
421.069	3.75
421.53	3.74
421.991	4.8
422.453	3.2
422.914	4.29
423.375	3.16
423.836	3.36
424.297	3.86
424.757	3.86
425.218	3.83
425.679	3.73
426.14	3.71
426.601	4.3
427.062	4.23
427.522	3.17
427.983	3.28
428.444	4.91
428.904	3.77
429.365	3.75
429.826	4.47
430.286	4.64
430.747	3.25
431.207	4.09
431.668	4.4
432.128	4.73
432.589	4.25
433.049	3.02
433.509	4.54
433.97	3.68
434.43	4.49
434.89	4.12
435.351	5.83
435.811	3.85
436.271	2.83
436.731	4.85
437.191	5.14
437.651	3.67
438.112	4.73
438.572	3.93
439.032	3.18
439.492	4.49
439.952	5.75
440.412	5.21
440.871	4.46
441.331	4.95
441.791	5.07
442.251	5.18
442.711	4.08
443.171	5.88
443.63	4.29
444.09	3.45
444.55	5.06
445.009	4.62
445.469	3.91
445.929	4.33
446.388	5.38
446.848	5.22
447.307	5.34
447.767	4.68
448.226	4.49
448.686	4.33
449.145	3.87
449.604	4.86
450.064	5.41
450.523	4.15
450.982	5.26
451.442	4.82
451.901	4.85
452.36	4.92
452.819	4.63
453.278	4.8
453.737	4.95
454.197	5.32
454.656	4.67
455.115	3.54
455.574	5.03
456.033	4.61
456.492	4.43
456.95	5.19
457.409	5.11
457.868	4.29
458.327	4.37
458.786	4.11
459.245	3.27
459.703	4.16
460.162	5.33
460.621	5.24
461.079	3.29
461.538	4.78
461.997	4.62
462.455	4.68
462.914	4.24
463.372	4.96
463.831	5.41
464.289	4.39
464.748	5.7
465.206	4.03
465.664	4.46
466.123	4.52
466.581	3.76
467.039	4.31
467.497	4.65
467.956	4.01
468.414	4.33
468.872	4.96
469.33	4.49
469.788	6.15
470.246	4.5
470.704	4.99
471.162	3.96
471.62	5.28
472.078	4.91
472.536	5.99
472.994	4.13
473.452	5.48
473.91	4.57
474.368	4.48
474.826	5.63
475.283	4.01
475.741	4.8
476.199	4.75
476.656	5.36
477.114	4.56
477.572	4.8
478.029	3.54
478.487	5.64
478.944	3.9
479.402	5.07
479.859	5.14
480.317	3.37
480.774	6.51
481.232	5.1
481.689	5.44
482.146	5.51
482.604	3.95
483.061	3.85
483.518	5.79
483.975	5.02
484.433	4.6
484.89	4.85
485.347	5.02
485.804	4.93
486.261	3.48
486.718	5.04
487.175	5.27
487.632	5.41
488.089	4.6
488.546	6.77
489.003	5.76
489.46	5.82
489.917	5.68
490.373	6.35
490.83	4.34
491.287	5.5
491.744	5.13
492.2	5.04
492.657	4.49
493.114	4.54
493.57	4.98
494.027	5.6
494.484	5.36
494.94	5.17
495.397	5.69
495.853	5.75
496.31	5.47
496.766	5.57
497.222	6.25
497.679	4.18
498.135	5.79
498.591	5.46
499.048	5.37
499.504	4.28
499.96	6.65
500.416	6.59
500.872	7.44
501.329	7.02
501.785	6.28
502.241	5.05
502.697	5.17
503.153	4.33
503.609	5.51
504.065	6.27
504.521	5.34
504.977	5.7
505.432	5.08
505.888	6.31
506.344	5.25
506.8	6.78
507.256	6.3
507.711	6.18
508.167	5.61
508.623	6.54
509.078	6.08
509.534	5.61
509.99	7.23
510.445	6.8
510.901	6.5
511.356	6.68
511.812	6.92
512.267	6.1
512.722	6.91
513.178	6.46
513.633	6.72
514.089	6.1
514.544	5.82
514.999	6.19
515.454	6.42
515.91	6.46
516.365	6.37
516.82	6.8
517.275	6.25
517.73	7.02
518.185	7.1
518.64	6.64
519.095	6.49
519.55	6.28
520.005	6.75
520.46	7.37
520.915	6.21
521.37	7.6
521.825	5.97
522.28	7.12
522.734	6.57
523.189	6.73
523.644	6.81
524.099	7.19
524.553	7.14
525.008	6.4
525.462	7.53
525.917	7.49
526.372	6.03
526.826	7.57
527.281	6.3
527.735	7.02
528.19	6.35
528.644	7.22
529.098	7.68
529.553	6.69
530.007	7.65
530.461	6.48
530.916	6.34
531.37	8.19
531.824	7.12
532.278	7.52
532.732	7.12
533.186	7.91
533.641	7.85
534.095	6.55
534.549	7.75
535.003	7.25
535.457	7.1
535.911	6.87
536.365	7.74
536.818	7.26
537.272	6.6
537.726	6.71
538.18	7.94
538.634	7.26
539.087	6.93
539.541	8.03
539.995	6.7
540.449	7.49
540.902	7.79
541.356	7.97
541.809	6.59
542.263	5.77
542.716	6.92
543.17	6.91
543.623	7.38
544.077	7.62
544.53	6.47
544.984	7.7
545.437	6.7
545.89	7.59
546.344	8.21
546.797	6.81
547.25	6.36
547.703	6.14
548.157	7.84
548.61	7.26
549.063	7.93
549.516	6.27
549.969	7.11
550.422	7.2
550.875	7.6
551.328	5.95
551.781	7.22
552.234	8.1
552.687	7.81
553.14	7.58
553.592	7.77
554.045	7.06
554.498	7.46
554.951	7.59
555.404	6.98
555.856	7.52
556.309	7.1
556.762	6.89
557.214	9.13
557.667	6.74
558.119	7.64
558.572	7.41
559.024	7.72
559.477	8.21
559.929	8.59
560.382	7.8
560.834	8.09
561.286	7.76
561.739	8.26
562.191	8.34
562.643	8.09
563.095	8.38
563.548	7.03
564	8.8
564.452	7.82
564.904	7.13
565.356	7.94
565.808	8.79
566.26	8.17
566.712	8.46
567.164	7.06
567.616	8.01
568.068	8.7
568.52	8.04
568.972	8.39
569.424	7.55
569.876	9.01
570.327	8.19
570.779	8.91
571.231	8.6
571.682	8.2
572.134	7.77
572.586	8.38
573.037	8.34
573.489	8.23
573.941	8.41
574.392	7.88
574.844	8.27
575.295	8.53
575.746	8.56
576.198	8.38
576.649	8.41
577.101	8.41
577.552	8.74
578.003	7.87
578.454	8.45
578.906	8.86
579.357	8.62
579.808	9.09
580.259	8.69
580.71	8.21
581.161	8.3
581.612	8.59
582.064	8.81
582.515	8.17
582.965	9.06
583.416	8.75
583.867	8.63
584.318	9.58
584.769	8.87
585.22	8.81
585.671	8.72
586.122	9.24
586.572	8.79
587.023	8.85
587.474	8.68
587.924	8.49
588.375	8.64
588.826	8.59
589.276	8.66
589.727	7.97
590.177	8.34
590.628	8.22
591.078	8.43
591.529	9.37
591.979	9.34
592.429	8.83
592.88	8.33
593.33	8.85
593.78	8.53
594.231	8.72
594.681	8.8
595.131	8.65
595.581	9.65
596.031	8.57
596.481	8.87
596.932	8.72
597.382	9.1
597.832	8.41
598.282	9.39
598.732	9.41
599.182	9.04
599.632	9.15
600.081	8.58
600.531	8.62
600.981	9.34
601.431	9.17
601.881	9.18
602.33	8.76
602.78	9.07
603.23	9.65
603.679	9.07
604.129	9.36
604.579	8.52
605.028	9.17
605.478	8.79
605.927	9.04
606.377	9.95
606.826	9.13
607.276	8.97
607.725	9.8
608.175	9.41
608.624	9.14
609.073	9.83
609.522	9.27
609.972	9.63
610.421	8.97
610.87	9.39
611.319	9.12
611.768	9.39
612.218	9.58
612.667	9.77
613.116	10.33
613.565	9.62
614.014	9.46
614.463	9.64
614.912	9.17
615.361	9.62
615.81	9.92
616.258	9.45
616.707	10.15
617.156	10.33
617.605	9.24
618.054	9.85
618.502	10.24
618.951	9.5
619.4	10.39
619.848	9.41
620.297	9.39
620.745	9.61
621.194	10.38
621.642	9.45
622.091	10.32
622.539	9.31
622.988	9.9
623.436	9.94
623.885	9.7
624.333	9.66
624.781	10.41
625.23	9.97
625.678	9.81
626.126	9.82
626.574	10.5
627.022	10.45
627.471	9.67
627.919	9.57
628.367	10.22
628.815	10.38
629.263	10.34
629.711	10.34
630.159	10.27
630.607	9.95
631.055	9.87
631.503	10.57
631.95	10.36
632.398	10.08
632.846	10.52
633.294	9.94
633.742	9.96
634.189	9.92
634.637	10.19
635.085	10.56
635.532	10.81
635.98	9.85
636.427	10.43
636.875	10.64
637.323	10.15
637.77	10.48
638.217	10.67
638.665	10.41
639.112	10.58
639.56	9.99
640.007	10.58
640.454	10.24
640.902	10.73
641.349	10.35
641.796	10.35
642.243	10.15
642.69	10.8
643.138	9.95
643.585	10.89
644.032	10.71
644.479	10.45
644.926	10.34
645.373	10.68
645.82	10.19
646.267	10.48
646.714	10.25
647.161	10.53
647.607	10.09
648.054	10.59
648.501	10.89
648.948	10.21
649.395	10.49
649.841	10.72
650.288	10.59
650.735	10.87
651.181	10.85
651.628	11.05
652.075	10.51
652.521	11.04
652.968	11.12
653.414	10.74
653.861	10.84
654.307	11.46
654.753	10.77
655.2	10.88
655.646	11.24
656.092	11.38
656.539	11.52
656.985	10.35
657.431	11.32
657.877	10.9
658.324	11.03
658.77	10.62
659.216	11.06
659.662	11.41
660.108	11.39
660.554	11.31
661	11
661.446	11.29
661.892	11.13
662.338	10.95
662.784	11.32
663.23	11.09
663.675	11.03
664.121	11.62
664.567	11.31
665.013	11.15
665.458	11.44
665.904	11.2
666.35	11.37
666.795	11.68
667.241	11.66
667.687	11.39
668.132	11.47
668.578	11.57
669.023	11.26
669.469	11.18
669.914	11.45
670.359	11.18
670.805	11.12
671.25	11.38
671.695	11.44
672.141	11.22
672.586	11.53
673.031	11.98
673.476	11.53
673.922	11.65
674.367	11.24
674.812	11.73
675.257	11.04
675.702	11.75
676.147	11.99
676.592	11.39
677.037	11.6
677.482	11.88
677.927	11.89
678.372	11.67
678.817	11.52
679.261	11.65
679.706	11.45
680.151	12.02
680.596	11.58
681.04	11.84
681.485	12.09
681.93	11.88
682.374	12.28
682.819	11.76
683.264	11.65
683.708	12.29
684.153	12.03
684.597	12.12
685.042	11.81
685.486	11.58
685.93	12.02
686.375	12.1
686.819	11.97
687.263	12.44
687.708	11.94
688.152	11.88
688.596	12.1
689.04	12.41
689.485	12.2
689.929	12.51
690.373	12.46
690.817	12.07
691.261	12.19
691.705	12.13
692.149	12.41
692.593	12.35
693.037	12.24
693.481	12.09
693.925	12.57
694.369	12.4
694.812	11.97
695.256	11.86
695.7	12.16
696.144	12.34
696.587	12.17
697.031	12.36
697.475	12.35
697.918	12.75
698.362	12.19
698.806	12.71
699.249	12.41
699.693	12.9
700.136	12.75
700.58	12.55
701.023	12.33
701.466	12.57
701.91	12.77
702.353	12.72
702.796	13.02
703.24	12.7
703.683	12.65
704.126	12.62
704.569	12.67
705.013	12.93
705.456	12.53
705.899	12.91
706.342	12.89
706.785	12.72
707.228	12.41
707.671	12.87
708.114	13.37
708.557	12.74
709	12.34
709.443	13.01
709.886	12.84
710.328	13.22
710.771	12.83
711.214	13.33
711.657	12.58
712.099	12.85
712.542	12.89
712.985	12.91
713.427	12.4
713.87	12.63
714.313	13.07
714.755	13.46
715.198	13.3
715.64	13.19
716.083	13.13
716.525	12.84
716.967	13.45
717.41	13.11
717.852	12.49
718.295	13.49
718.737	12.89
719.179	13.46
719.621	13.28
720.063	13.1
720.506	13.16
720.948	13.4
721.39	13.19
721.832	13.57
722.274	13.81
722.716	13.54
723.158	13.65
723.6	12.98
724.042	13.72
724.484	13.51
724.926	13.5
725.368	13.19
725.81	13.61
726.251	13.9
726.693	13.57
727.135	13.55
727.577	13.54
728.018	13.39
728.46	13.45
728.902	13.71
729.343	13.85
729.785	13.59
730.226	13.46
730.668	13.86
731.109	13.56
731.551	13.89
731.992	14.19
732.434	13.96
732.875	13.93
733.316	13.96
733.758	13.99
734.199	13.43
734.64	13.79
735.081	13.43
735.523	14.1
735.964	13.58
736.405	13.89
736.846	13.93
737.287	13.82
737.728	13.77
738.169	13.91
738.61	13.98
739.051	13.67
739.492	14.06
739.933	14.35
740.374	14.27
740.815	14.01
741.256	13.97
741.696	13.94
742.137	14
742.578	14.6
743.019	14.49
743.459	14.15
743.9	14.46
744.341	14
744.781	14.74
745.222	14.26
745.662	14.29
746.103	13.9
746.543	14.35
746.984	14.32
747.424	14.53
747.865	14.5
748.305	14.35
748.745	14.2
749.186	14.09
749.626	13.87
750.066	14.08
750.506	14.77
750.947	14.28
751.387	14.49
751.827	14.22
752.267	14.63
752.707	14.49
753.147	14.45
753.587	14.93
754.027	14.21
754.467	14.58
754.907	14.23
755.347	14.94
755.787	14.48
756.227	14.2
756.667	15.46
757.107	14.93
757.546	14.55
757.986	15.18
758.426	15.12
758.865	14.86
759.305	14.81
759.745	14.64
760.184	14.69
760.624	15.11
761.063	15.27
761.503	14.85
761.943	14.98
762.382	14.74
762.821	15.08
763.261	15.22
763.7	15.11
764.14	14.96
764.579	15.25
765.018	15.22
765.457	15.49
765.897	14.97
766.336	14.93
766.775	15.25
767.214	14.95
767.653	15.41
768.092	15.39
768.531	15.55
768.97	15.05
769.409	15.23
769.848	15.28
770.287	15.24
770.726	15.46
771.165	15.83
771.604	15.24
772.043	15.88
772.482	15.31
772.92	15.51
773.359	15.27
773.798	15.58
774.237	15.28
774.675	15.84
775.114	16.24
775.553	15.33
775.991	15.89
776.43	15.69
776.868	15.63
777.307	15.73
777.745	15.99
778.184	15.69
778.622	15.83
779.06	15.43
779.499	15.89
779.937	16.02
780.375	15.78
780.814	16.31
781.252	15.94
781.69	15.93
782.128	15.96
782.566	15.85
783.004	16.21
783.443	16.03
783.881	16.07
784.319	16
784.757	16.32
785.195	15.69
785.633	15.78
786.071	16.3
786.508	15.68
786.946	15.91
787.384	16.32
787.822	16.37
788.26	16.06
788.697	16.36
789.135	16.41
789.573	16.25
790.011	16.13
790.448	16.22
790.886	16.25
791.323	16.14
791.761	16.58
792.198	16.62
792.636	16.41
793.073	16.73
793.511	16.56
793.948	16.75
794.386	16.57
794.823	16.67
795.26	16.49
795.698	16.64
796.135	16.61
796.572	16.94
797.009	16.4
797.446	16.94
797.884	16.72
798.321	16.51
798.758	16.8
799.195	16.77
799.632	16.77
800.069	17.04
800.506	16.69
800.943	16.74
801.38	16.72
801.817	16.65
802.254	17.19
802.69	17.01
803.127	16.77
803.564	16.99
804.001	17.44
804.438	17.2
804.874	17.01
805.311	17.07
805.748	17.13
806.184	17.06
806.621	17.21
807.057	16.82
807.494	16.91
807.93	16.92
808.367	17.1
808.803	17.35
809.24	17.08
809.676	17.29
810.112	17.15
810.549	17.45
810.985	17.28
811.421	17.37
811.857	17.59
812.294	17.5
812.73	17.47
813.166	17.15
813.602	17.39
814.038	17.34
814.474	17.75
814.91	18.22
815.346	17.43
815.782	17.45
816.218	17.57
816.654	17.89
817.09	17.62
817.526	17.65
817.962	17.32
818.398	17.78
818.833	18.27
819.269	17.93
819.705	18.15
820.141	18.28
820.576	17.82
821.012	17.83
821.447	17.98
821.883	18.01
822.319	18.3
822.754	18.03
823.19	17.98
823.625	17.88
824.061	18.18
824.496	18.37
824.931	17.85
825.367	17.84
825.802	18.13
826.237	18.13
826.673	18.34
827.108	18.41
827.543	18.17
827.978	18.56
828.413	18.2
828.849	18.34
829.284	18.54
829.719	18.32
830.154	18.51
830.589	18.35
831.024	18.71
831.459	18.02
831.894	18.48
832.329	18.55
832.763	18.5
833.198	18.84
833.633	18.86
834.068	18.62
834.503	18.76
834.937	18.59
835.372	18.83
835.807	18.66
836.241	18.88
836.676	18.67
837.111	18.76
837.545	18.95
837.98	18.76
838.414	19.07
838.849	18.9
839.283	18.99
839.717	18.75
840.152	19.08
840.586	18.78
841.021	18.88
841.455	18.58
841.889	18.78
842.323	19.4
842.758	19.23
843.192	19.4
843.626	19.19
844.06	19.47
844.494	19.46
844.928	19.03
845.362	19.31
845.796	19.4
846.23	19.47
846.664	19.27
847.098	19.46
847.532	19.12
847.966	19.09
848.4	19.28
848.834	19.54
849.267	19.3
849.701	19.23
850.135	19.81
850.569	19.77
851.002	19.61
851.436	19.66
851.87	19.54
852.303	19.53
852.737	19.76
853.17	19.79
853.604	20.05
854.037	20.04
854.471	19.9
854.904	19.65
855.337	19.49
855.771	19.68
856.204	19.91
856.637	20.09
857.071	20.14
857.504	20.34
857.937	19.96
858.37	20.33
858.804	20.3
859.237	20.01
859.67	19.69
860.103	20.36
860.536	20.17
860.969	20.02
861.402	20.24
861.835	20.22
862.268	20.3
862.701	20.38
863.134	20.06
863.566	20.38
863.999	20.27
864.432	20.3
864.865	20.49
865.298	20.29
865.73	20.46
866.163	20.5
866.596	20.32
867.028	20.38
867.461	20.54
867.893	20.54
868.326	20.63
868.758	20.85
869.191	20.69
869.623	20.43
870.056	20.74
870.488	21.02
870.92	20.51
871.353	20.76
871.785	20.86
872.217	20.83
872.65	20.65
873.082	20.72
873.514	20.73
873.946	20.87
874.378	20.4
874.81	20.78
875.243	20.65
875.675	20.66
876.107	20.59
876.539	20.55
876.971	20.87
877.403	20.91
877.834	21.24
878.266	20.95
878.698	21.14
879.13	21.44
879.562	21.15
879.994	21.38
880.425	21.34
880.857	21.3
881.289	21.33
881.72	21.48
882.152	21.52
882.584	21.31
883.015	21.73
883.447	21.33
883.878	21.43
884.31	21.56
884.741	21.59
885.173	21.21
885.604	21.54
886.035	21.18
886.467	21.34
886.898	21.5
887.329	21.84
887.76	21.65
888.192	21.76
888.623	21.19
889.054	21.51
889.485	21.72
889.916	21.54
890.347	22
890.778	22
891.209	21.6
891.64	21.8
892.071	21.89
892.502	22.1
892.933	22.15
893.364	21.87
893.795	22.09
894.226	22.17
894.657	21.89
895.087	22.11
895.518	22.11
895.949	22.1
896.38	22.06
896.81	21.98
897.241	22.54
897.671	22.41
898.102	22.52
898.533	22.24
898.963	22.21
899.394	22
899.824	22.55
900.254	22.44
900.685	22.43
901.115	22.32
901.546	22.3
901.976	22.56
902.406	22.78
902.836	22.52
903.267	22.73
903.697	22.33
904.127	22.4
904.557	22.38
904.987	22.35
905.417	22.39
905.847	22.65
906.277	22.72
906.707	22.49
907.137	22.59
907.567	23.05
907.997	23.05
908.427	22.81
908.857	23.05
909.287	22.63
909.717	22.92
910.146	23.15
910.576	22.82
911.006	22.69
911.436	22.85
911.865	22.77
912.295	22.72
912.724	23.18
913.154	23.15
913.584	23.41
914.013	22.93
914.443	23.32
914.872	23.11
915.302	23.31
915.731	23.32
916.16	23.23
916.59	22.97
917.019	23.33
917.448	23.35
917.878	23.17
918.307	23.54
918.736	23.5
919.165	23.61
919.594	23.31
920.023	23.38
920.452	23.19
920.882	23.26
921.311	23.69
921.74	23.6
922.169	23.4
922.597	23.53
923.026	23.57
923.455	23.49
923.884	23.37
924.313	23.69
924.742	23.64
925.171	23.77
925.599	23.65
926.028	23.82
926.457	23.87
926.885	24.03
927.314	23.8
927.743	23.91
928.171	23.94
928.6	23.77
929.028	23.58
929.457	24.12
929.885	24.13
930.314	23.91
930.742	23.83
931.17	24.15
931.599	23.92
932.027	24.12
932.455	24.13
932.884	24.1
933.312	24.23
933.74	24.3
934.168	23.93
934.596	24.35
935.025	24.2
935.453	24.15
935.881	24.29
936.309	24.2
936.737	24.06
937.165	23.99
937.593	24.1
938.021	24.16
938.449	24.01
938.876	24.1
939.304	24.29
939.732	24.17
940.16	24.76
940.588	24.6
941.015	24.32
941.443	24.55
941.871	24.11
942.298	24.36
942.726	24.07
943.154	24.65
943.581	24.41
944.009	24.08
944.436	24.58
944.864	24.75
945.291	24.3
945.718	24.27
946.146	24.28
946.573	24.45
947.001	24.42
947.428	24.99
947.855	24.76
948.282	24.66
948.71	24.64
949.137	24.58
949.564	24.43
949.991	24.37
950.418	25.31
950.845	24.52
951.272	24.79
951.699	24.45
952.126	24.5
952.553	25.06
952.98	24.9
953.407	24.48
953.834	24.85
954.261	25.28
954.688	24.93
955.114	25.02
955.541	24.98
955.968	25.14
956.395	25.18
956.821	24.54
957.248	24.89
957.674	24.8
958.101	24.84
958.528	24.8
958.954	24.93
959.381	25.57
959.807	25.14
960.234	24.99
960.66	25.31
961.086	25.17
961.513	25.26
961.939	24.97
962.365	25.21
962.792	25.36
963.218	25.17
963.644	25.26
964.07	25.48
964.496	24.97
964.923	25.47
965.349	25.22
965.775	25.53
966.201	25.23
966.627	25.26
967.053	25.47
967.479	25.6
967.905	25.55
968.331	25.58
968.756	25.47
969.182	25.67
969.608	25.28
970.034	25.18
970.46	25.37
970.885	25.77
971.311	25.86
971.737	25.57
972.162	25.53
972.588	25.39
973.014	25.48
973.439	25.73
973.865	25.49
974.29	25.56
974.716	25.44
975.141	25.86
975.567	25.82
975.992	25.97
976.417	25.86
976.843	25.75
977.268	25.8
977.693	25.85
978.119	25.9
978.544	25.77
978.969	25.92
979.394	25.92
979.819	25.95
980.244	25.77
980.669	25.97
981.095	26.2
981.52	26.05
981.945	26.1
982.369	26.25
982.794	25.93
983.219	26.24
983.644	26.06
984.069	26.34
984.494	26.07
984.919	26.09
985.343	25.95
985.768	26.05
986.193	26.24
986.618	26.41
987.042	26.39
987.467	26.17
987.891	26.12
988.316	26.38
988.741	26.56
989.165	26.42
989.59	26.15
990.014	26.39
990.438	26.31
990.863	26.59
991.287	26.48
991.712	26.62
992.136	26.58
992.56	26.43
992.984	26.35
993.409	26.5
993.833	26.7
994.257	26.49
994.681	26.72
995.105	26.57
995.529	26.65
995.953	26.54
996.377	26.61
996.801	26.58
997.225	26.65
997.649	26.42
998.073	26.7
998.497	26.19
998.921	26.87
999.345	26.74
999.769	26.89
1000.192	26.67
1000.616	26.77
1001.04	26.9
1001.464	26.77
1001.887	26.59
1002.311	26.78
1002.734	27.27
1003.158	27.02
1003.582	26.59
1004.005	26.9
1004.429	26.84
1004.852	27.01
1005.275	27.04
1005.699	27.13
1006.122	26.73
1006.546	26.7
1006.969	27.34
1007.392	26.97
1007.815	27.15
1008.239	27.12
1008.662	26.97
1009.085	27.09
1009.508	27.24
1009.931	27.3
1010.354	27.58
1010.778	27.12
1011.201	27.05
1011.624	26.98
1012.047	26.97
1012.469	27.07
1012.892	27.26
1013.315	27.02
1013.738	27.67
1014.161	27.3
1014.584	27.58
1015.007	27.39
1015.429	27.4
1015.852	27.28
1016.275	27.26
1016.697	27.49
1017.12	27.7
1017.543	27.62
1017.965	27.8
1018.388	27.42
1018.81	27.2
1019.233	27.45
1019.655	27.78
1020.078	27.81
1020.5	27.73
1020.922	27.71
1021.345	27.64
1021.767	27.37
1022.189	27.83
1022.612	27.67
1023.034	27.92
1023.456	27.44
1023.878	28.02
1024.301	27.72
1024.723	27.62
1025.145	27.98
1025.567	27.48
1025.989	27.97
1026.411	27.71
1026.833	27.98
1027.255	28.02
1027.677	27.81
1028.099	27.79
1028.52	27.99
1028.942	28.08
1029.364	27.71
1029.786	27.93
1030.208	28.01
1030.629	27.82
1031.051	27.68
1031.473	27.92
1031.894	27.83
1032.316	28.03
1032.738	27.73
1033.159	28.25
1033.581	28.42
1034.002	28.18
1034.424	28.69
1034.845	28.05
1035.267	28.54
1035.688	28.23
1036.109	28.28
1036.531	28.18
1036.952	28.24
1037.373	28.36
1037.794	28.04
1038.216	28.41
1038.637	28.18
1039.058	28.72
1039.479	28.28
1039.9	28.29
1040.321	28.65
1040.742	28.45
1041.163	28.18
1041.584	28.19
1042.005	28.2
1042.426	28.46
1042.847	28.52
1043.268	28.52
1043.689	28.38
1044.11	28.63
1044.53	28.49
1044.951	28.54
1045.372	28.5
1045.793	28.19
1046.213	28.83
1046.634	28.11
1047.055	28.25
1047.475	28.83
1047.896	28.46
1048.316	29.08
1048.737	28.52
1049.157	28.89
1049.578	28.55
1049.998	28.91
1050.419	28.75
1050.839	28.71
1051.259	28.56
1051.68	28.58
1052.1	28.54
1052.52	28.69
1052.94	28.5
1053.361	28.68
1053.781	28.71
1054.201	28.43
1054.621	28.95
1055.041	28.65
1055.461	28.81
1055.881	28.58
1056.301	28.69
1056.721	29
1057.141	29.15
1057.561	28.95
1057.981	28.84
1058.401	28.56
1058.82	28.86
1059.24	28.77
1059.66	28.62
1060.08	28.76
1060.499	28.69
1060.919	29.24
1061.339	29.71
1061.758	29.07
1062.178	28.48
1062.598	28.95
1063.017	29.02
1063.437	28.99
1063.856	28.48
1064.276	28.99
1064.695	28.49
1065.114	28.24
1065.534	28.39
1065.953	28.47
1066.372	28.64
1066.792	28.79
1067.211	29.74
1067.63	28.88
1068.049	28.23
1068.469	28.76
1068.888	29.17
1069.307	28.61
1069.726	29.04
1070.145	29.19
1070.564	29.25
1070.983	28.99
1071.402	29.79
1071.821	28.42
1072.24	29.47
1072.659	29.13
1073.078	29.21
1073.496	29.39
1073.915	29.32
1074.334	29.41
1074.753	28.43
1075.171	29.18
1075.59	29.23
1076.009	29.12
1076.427	29.69
1076.846	28.87
1077.265	28.85
1077.683	29.24
1078.102	29.26
1078.52	29.39
1078.939	28.48
1079.357	29.2
1079.776	28.97
1080.194	29.26
1080.612	29.02
1081.031	29.24
1081.449	29.32
1081.867	27.94
1082.285	29.81
1082.704	28.58
1083.122	28.88
1083.54	28.65
1083.958	28.33
1084.376	29.49
1084.794	28.87
1085.212	28.96
1085.63	29.03
1086.048	29.07
1086.466	29.29
1086.884	29.09
1087.302	28.54
1087.72	29.17
1088.138	28.71
1088.555	28.78
1088.973	29.29
1089.391	28.67
1089.809	29.2
1090.226	28.65
1090.644	29.75
1091.062	28.05
1091.479	29.17
1091.897	28.84
1092.314	28.45
1092.732	28.88
1093.15	28.78
1093.567	28.81
1093.984	28.77
1094.402	29.36
1094.819	30.08
1095.237	29.85
1095.654	28.65
1096.071	28.17
1096.488	29.32
1096.906	30.43
1097.323	28.29
1097.74	29.34
1098.157	28.86
1098.574	28.25
1098.991	29.2
1099.409	28.71
1099.826	29.79
1100.243	29.1
1100.66	29.21
1101.077	29.17
1101.494	28.1
1101.91	30.58
1102.327	28.72
1102.744	28.95
1103.161	28.78
1103.578	28.72
1103.994	28.72
1104.411	29.83
1104.828	28.39
1105.245	29.07
1105.661	28.14
1106.078	29.4
1106.494	28.07
1106.911	28.83
1107.328	27.78
1107.744	29.02
1108.161	29.73
1108.577	27.56
1108.993	26.67
1109.41	29.26
1109.826	29.91
1110.242	27.86
1110.659	29.56
1111.075	28.95
1111.491	29.58
1111.908	27.29
1112.324	31.25
1112.74	18.26
1113.156	27.08
1113.572	29.03
1113.988	28.18
1114.404	27.35
1114.82	27.54
1115.236	26.28
1115.652	27.89
1116.068	27.52
1116.484	27.65
1116.9	26.97
1117.316	26.59
1117.732	15.38
1118.147	50
1118.563	75
1118.979	100
