Data from JCR0018_SupralabialBlack_Reflection_00001.txt Node
Date: Thu Jul 23 16:35:38 ACST 2020
User: Stacey Dix
Spectrometer: MAYP113282
Scans to average: 1
Trigger mode: 0
Integration Time (sec): 1.000000E-1
Electric dark correction enabled: true
Boxcar width: 0
XAxis mode: Wavelengths
Number of Pixels in Spectrum: 2068
>>>>>Begin Spectral Data<<<<<
198.791	-383.33
199.266	133.33
199.74	66.67
200.215	0
200.69	-6.39
201.164	-3.76
201.639	-7.33
202.114	14.58
202.588	-12.54
203.063	14.34
203.537	3.03
204.012	7.98
204.486	3.37
204.961	6.16
205.435	0.32
205.909	5.11
206.384	-0.5
206.858	-5.3
207.332	7.35
207.807	-8.96
208.281	18.91
208.755	3.21
209.229	-13.74
209.703	13.29
210.177	-7.9
210.651	4.43
211.126	5.43
211.6	6.14
212.074	9.68
212.548	3.23
213.021	6.75
213.495	14.42
213.969	0.87
214.443	-0.94
214.917	6.55
215.391	12.15
215.864	-5.04
216.338	-0.37
216.812	5.14
217.286	2.18
217.759	12.69
218.233	9.19
218.706	1.93
219.18	0.54
219.654	12.91
220.127	4.5
220.6	7
221.074	3.91
221.547	5.95
222.021	4.18
222.494	-1.51
222.967	2.18
223.441	-6.05
223.914	9.77
224.387	1.82
224.86	4.2
225.334	1.17
225.807	1.97
226.28	0.42
226.753	0.91
227.226	4.25
227.699	1.71
228.172	3.46
228.645	1.57
229.118	0.54
229.591	-1.44
230.064	0.27
230.537	2.76
231.01	0.46
231.482	0.82
231.955	1.53
232.428	0.56
232.901	0.29
233.373	0.52
233.846	0.41
234.319	1.39
234.791	0.9
235.264	0.22
235.736	0.73
236.209	0.53
236.681	0.92
237.154	1.6
237.626	1.28
238.099	0.45
238.571	2.23
239.044	1.02
239.516	1.68
239.988	0.3
240.46	2.32
240.933	0.81
241.405	0.71
241.877	-0.34
242.349	0.97
242.821	1.16
243.293	0.11
243.765	1.95
244.237	1.65
244.71	1.34
245.181	1.01
245.653	0.74
246.125	1.44
246.597	0.89
247.069	0.26
247.541	1.99
248.013	-0.17
248.485	0.89
248.956	1.81
249.428	0.94
249.9	1.38
250.371	1.82
250.843	0.41
251.315	0.22
251.786	2.02
252.258	0.26
252.729	1.42
253.201	1.74
253.672	0.94
254.144	0.79
254.615	0.45
255.086	0.44
255.558	0.85
256.029	0.55
256.5	0.73
256.972	0.52
257.443	0.62
257.914	0.78
258.385	0.6
258.856	1.24
259.327	0.61
259.799	0.69
260.27	0.73
260.741	0.88
261.212	0.67
261.683	0.62
262.154	0.78
262.624	0.77
263.095	0.72
263.566	1.33
264.037	1
264.508	-0.04
264.979	0.97
265.449	0.56
265.92	0.92
266.391	0.33
266.861	0.82
267.332	0.74
267.803	0.2
268.273	0.4
268.744	0.59
269.214	0.1
269.685	0.89
270.155	0.44
270.626	0.89
271.096	0.11
271.566	1.12
272.037	1.18
272.507	1.18
272.977	-0.02
273.448	0.05
273.918	0.96
274.388	1.09
274.858	0.38
275.328	0.82
275.798	0.8
276.268	0.68
276.738	0.16
277.208	0.95
277.678	0.28
278.148	-0.03
278.618	-0.06
279.088	0.42
279.558	0.46
280.028	0.95
280.498	0.19
280.968	0.32
281.437	1.03
281.907	0.33
282.377	0.46
282.847	-0.02
283.316	0.89
283.786	0.5
284.255	0.63
284.725	0.04
285.194	0.82
285.664	0.57
286.133	0.24
286.603	0.24
287.072	0.27
287.542	0.9
288.011	0.04
288.48	0.27
288.95	0.88
289.419	1.03
289.888	-0.22
290.357	0.15
290.827	0.52
291.296	0.49
291.765	0.72
292.234	0.69
292.703	0.69
293.172	0.43
293.641	0.82
294.11	0.71
294.579	0.92
295.048	1.45
295.517	0.42
295.986	0.1
296.455	0.58
296.923	0.01
297.392	0.16
297.861	0.01
298.33	0.84
298.798	0.17
299.267	0.36
299.736	0.56
300.204	0.1
300.673	0.29
301.141	0.75
301.61	0.97
302.079	0.85
302.547	1.5
303.015	0.56
303.484	0.49
303.952	0.77
304.421	0.01
304.889	0.78
305.357	0.76
305.825	0.32
306.294	0.32
306.762	1.15
307.23	0.77
307.698	0.96
308.166	0.83
308.634	-0.18
309.103	1.19
309.571	0.96
310.039	1.09
310.507	0.64
310.975	1.07
311.442	0.8
311.91	0.7
312.378	0.29
312.846	0.41
313.314	0.73
313.782	-0.19
314.249	0.76
314.717	0.73
315.185	0.73
315.652	0.78
316.12	0.83
316.588	0.72
317.055	0.69
317.523	1.23
317.99	0.76
318.458	0.64
318.925	0.7
319.393	0.67
319.86	0.56
320.328	1.54
320.795	-0.11
321.262	1.76
321.73	1.31
322.197	0.98
322.664	-0.11
323.131	0.92
323.598	1.69
324.066	1.18
324.533	0.74
325	1.38
325.467	1.68
325.934	1.47
326.401	0.58
326.868	1.19
327.335	1.67
327.802	1.7
328.269	1.54
328.735	1.68
329.202	2.18
329.669	2.18
330.136	1.78
330.603	2.5
331.069	2.35
331.536	2.78
332.003	2.85
332.469	2.21
332.936	3.09
333.402	2.24
333.869	2.79
334.336	2.85
334.802	2.55
335.268	2.65
335.735	2.75
336.201	2.74
336.668	3.38
337.134	3.17
337.6	2.76
338.067	4.11
338.533	2.85
338.999	3.56
339.465	2.71
339.931	3.75
340.398	3.77
340.864	2.77
341.33	3.38
341.796	2.96
342.262	2.68
342.728	2.9
343.194	2.5
343.66	3.08
344.126	3.12
344.592	2.93
345.057	3.83
345.523	3.56
345.989	2.41
346.455	2.77
346.921	3.87
347.386	3.21
347.852	3.42
348.318	3.39
348.783	3.47
349.249	2.63
349.714	3.05
350.18	3.67
350.645	2.87
351.111	3.59
351.576	3.37
352.042	3.1
352.507	3.52
352.973	3.19
353.438	2.86
353.903	3.02
354.369	3.13
354.834	3.89
355.299	3.49
355.764	2.86
356.229	3.12
356.695	3.33
357.16	3.07
357.625	3.15
358.09	2.96
358.555	3.58
359.02	2.8
359.485	2.96
359.95	3.26
360.415	3.86
360.879	2.97
361.344	2.85
361.809	3.56
362.274	3.77
362.739	3.07
363.203	3.21
363.668	4.28
364.133	3.08
364.597	3.17
365.062	3.15
365.527	2.91
365.991	3.83
366.456	3.22
366.92	2.83
367.385	2.63
367.849	2.76
368.314	2.3
368.778	3.21
369.242	2.67
369.707	2.7
370.171	3.09
370.635	3.36
371.1	3.19
371.564	2.72
372.028	3.36
372.492	2.82
372.956	3.17
373.42	3.32
373.884	3.98
374.348	3.55
374.812	3.36
375.276	3.46
375.74	3.93
376.204	3.29
376.668	3.03
377.132	2.91
377.596	3.26
378.06	3.26
378.524	2.92
378.987	2.46
379.451	3.55
379.915	3.46
380.378	3.34
380.842	3.68
381.306	2.68
381.769	3.35
382.233	4.05
382.696	2.39
383.16	3.3
383.623	4.1
384.087	2.66
384.55	3.75
385.014	3.34
385.477	3.12
385.94	3.76
386.404	3.75
386.867	3.22
387.33	3.77
387.793	3.24
388.256	2.97
388.72	3.6
389.183	3.16
389.646	3.67
390.109	3.2
390.572	3.54
391.035	3.56
391.498	3.7
391.961	3.16
392.424	3.58
392.887	3.56
393.35	3.23
393.812	3.5
394.275	3.12
394.738	3.64
395.201	3.33
395.664	3.36
396.126	2.7
396.589	3.33
397.052	2.9
397.514	3.17
397.977	3.02
398.439	3.55
398.902	3.78
399.364	3.06
399.827	3.73
400.289	3.82
400.752	2.88
401.214	3.48
401.676	3.2
402.139	2.84
402.601	3.7
403.063	2.94
403.525	3.68
403.988	2.83
404.45	2.91
404.912	3.18
405.374	2.96
405.836	3.3
406.298	3.19
406.76	3.02
407.222	3.35
407.684	3.07
408.146	3.33
408.608	2.89
409.07	3.03
409.532	2.88
409.994	2.85
410.456	2.83
410.917	3.01
411.379	3.72
411.841	3.33
412.303	3.01
412.764	3.13
413.226	2.99
413.687	3.14
414.149	2.62
414.611	3.25
415.072	2.93
415.534	3.09
415.995	3.04
416.457	3.01
416.918	2.78
417.379	3.08
417.841	3.2
418.302	3.89
418.763	3.02
419.225	3.71
419.686	2.55
420.147	3.26
420.608	3.12
421.069	3.11
421.53	3.18
421.991	3.8
422.453	2.89
422.914	3.07
423.375	3.01
423.836	2.77
424.297	2.66
424.757	3.49
425.218	3.87
425.679	2.93
426.14	3.55
426.601	3.41
427.062	2.63
427.522	2.47
427.983	3.01
428.444	3.31
428.904	2.48
429.365	3.2
429.826	3.62
430.286	4.13
430.747	4.74
431.207	3.31
431.668	3.31
432.128	4.55
432.589	3.33
433.049	3.73
433.509	3.42
433.97	3.45
434.43	3.37
434.89	2.42
435.351	3.84
435.811	2.57
436.271	2.54
436.731	3.33
437.191	3.87
437.651	3.22
438.112	4.24
438.572	1.66
439.032	3.66
439.492	4.08
439.952	3.56
440.412	3.78
440.871	4
441.331	3.67
441.791	4.23
442.251	4.3
442.711	4.05
443.171	4.68
443.63	5.16
444.09	3.51
444.55	4.04
445.009	3.85
445.469	3.48
445.929	4.1
446.388	4.03
446.848	4.01
447.307	4.59
447.767	3.55
448.226	3.99
448.686	3.64
449.145	3.61
449.604	4.03
450.064	4.33
450.523	4.2
450.982	5.23
451.442	4.22
451.901	4.5
452.36	3.49
452.819	3.72
453.278	4.42
453.737	3.43
454.197	4.7
454.656	3.6
455.115	3.48
455.574	3.72
456.033	4.7
456.492	3.91
456.95	5.08
457.409	3.09
457.868	4.35
458.327	3.71
458.786	3.17
459.245	2.91
459.703	3.91
460.162	4.36
460.621	3.35
461.079	3.88
461.538	3.98
461.997	3.45
462.455	4.87
462.914	3.58
463.372	3.86
463.831	4.23
464.289	3.51
464.748	4.17
465.206	4
465.664	4.8
466.123	3.36
466.581	3.59
467.039	3.77
467.497	4.66
467.956	3.7
468.414	3.45
468.872	3.93
469.33	3.97
469.788	4.45
470.246	3.8
470.704	4.62
471.162	4.03
471.62	4.78
472.078	3.63
472.536	5.56
472.994	4.93
473.452	3.77
473.91	4.74
474.368	4.25
474.826	4.38
475.283	3.98
475.741	3.07
476.199	4.11
476.656	4.38
477.114	4.18
477.572	3.03
478.029	3.21
478.487	4.53
478.944	2.46
479.402	5.59
479.859	4.11
480.317	3.7
480.774	6.18
481.232	3.35
481.689	5.15
482.146	5.47
482.604	3.66
483.061	4.58
483.518	4.45
483.975	5.24
484.433	3.36
484.89	4.52
485.347	4.44
485.804	3.45
486.261	2.43
486.718	4.31
487.175	2.32
487.632	4.52
488.089	2.6
488.546	5.43
489.003	4.8
489.46	4.76
489.917	3.77
490.373	5.96
490.83	3.03
491.287	4.71
491.744	4.41
492.2	3.99
492.657	5.03
493.114	4.3
493.57	2.77
494.027	5.47
494.484	3.82
494.94	4.16
495.397	5.23
495.853	5.37
496.31	3.81
496.766	4.03
497.222	4.79
497.679	4.1
498.135	5.76
498.591	4.65
499.048	5.39
499.504	3.61
499.96	6.04
500.416	5
500.872	5.94
501.329	6.24
501.785	4.11
502.241	4.74
502.697	4.04
503.153	3.79
503.609	4.28
504.065	3.2
504.521	5.18
504.977	3.93
505.432	4.24
505.888	5.59
506.344	5.39
506.8	5.38
507.256	5.24
507.711	5.33
508.167	5.3
508.623	5.27
509.078	5.42
509.534	5.7
509.99	4.63
510.445	5.49
510.901	5.04
511.356	6.08
511.812	5.39
512.267	4.38
512.722	5.64
513.178	6.1
513.633	5.52
514.089	6.15
514.544	5.66
514.999	6.02
515.454	5.34
515.91	5.54
516.365	4.98
516.82	6.04
517.275	5.29
517.73	5.98
518.185	5.57
518.64	5.95
519.095	5.99
519.55	5.42
520.005	5.81
520.46	6.2
520.915	6.05
521.37	6.6
521.825	5.81
522.28	6
522.734	5.49
523.189	5.29
523.644	5.88
524.099	5.51
524.553	5.77
525.008	6.13
525.462	5.69
525.917	6.45
526.372	5.09
526.826	5.94
527.281	5.61
527.735	5.67
528.19	4.38
528.644	6.72
529.098	6.32
529.553	6.12
530.007	6.06
530.461	5.54
530.916	5.34
531.37	6.32
531.824	6
532.278	5.2
532.732	5.75
533.186	6.3
533.641	5.38
534.095	5.99
534.549	6.57
535.003	5.45
535.457	6.2
535.911	5.54
536.365	6.95
536.818	6.44
537.272	5.36
537.726	5.66
538.18	6.34
538.634	5.96
539.087	5.97
539.541	6.5
539.995	5.56
540.449	6.64
540.902	5.73
541.356	5.3
541.809	5.72
542.263	5.71
542.716	5.88
543.17	6.53
543.623	5.89
544.077	7.21
544.53	5.97
544.984	6.27
545.437	6.56
545.89	6.01
546.344	6.62
546.797	5.46
547.25	5.62
547.703	5.48
548.157	6.36
548.61	5.57
549.063	7.32
549.516	6.54
549.969	6.33
550.422	6.29
550.875	6.24
551.328	5.47
551.781	6.27
552.234	5.74
552.687	6.15
553.14	6.56
553.592	5.66
554.045	5.41
554.498	5.51
554.951	6.82
555.404	6.38
555.856	6.03
556.309	5.79
556.762	6.34
557.214	6.63
557.667	6.28
558.119	6.53
558.572	6.07
559.024	6.6
559.477	6.5
559.929	6.32
560.382	6.52
560.834	7.62
561.286	6.51
561.739	6.41
562.191	6.87
562.643	6.29
563.095	7
563.548	6.34
564	7.22
564.452	6.37
564.904	7.24
565.356	7.63
565.808	6.6
566.26	6.63
566.712	6.64
567.164	6.48
567.616	7.66
568.068	6.82
568.52	7.02
568.972	7.67
569.424	6.38
569.876	7.22
570.327	7.21
570.779	6.52
571.231	7.58
571.682	7.31
572.134	6.7
572.586	7.65
573.037	6.18
573.489	7.38
573.941	7.39
574.392	6.5
574.844	6.81
575.295	6.74
575.746	6.97
576.198	7.42
576.649	6.63
577.101	7.48
577.552	6.61
578.003	7.15
578.454	6.78
578.906	6.39
579.357	6.03
579.808	7.06
580.259	7.31
580.71	7.53
581.161	7.43
581.612	7.08
582.064	7.49
582.515	6.87
582.965	7.48
583.416	7.74
583.867	7.1
584.318	6.99
584.769	7.44
585.22	7.23
585.671	8.22
586.122	7.29
586.572	7.3
587.023	7.71
587.474	7.6
587.924	7.63
588.375	7.26
588.826	6.86
589.276	7.68
589.727	7.4
590.177	8.14
590.628	7.28
591.078	7.36
591.529	7.73
591.979	7.53
592.429	7.89
592.88	7.86
593.33	7.66
593.78	8.35
594.231	7.92
594.681	7.67
595.131	7.64
595.581	8.34
596.031	7.2
596.481	8.39
596.932	8.2
597.382	7.84
597.832	7.08
598.282	7.6
598.732	8.01
599.182	7.68
599.632	7.86
600.081	7.32
600.531	7.81
600.981	8.13
601.431	8.25
601.881	7.31
602.33	8.03
602.78	8.1
603.23	8.23
603.679	8.3
604.129	7.47
604.579	7.72
605.028	7.67
605.478	8.27
605.927	7.87
606.377	7.62
606.826	8.2
607.276	7.61
607.725	8.53
608.175	7.7
608.624	8.61
609.073	8.21
609.522	8.39
609.972	8.9
610.421	8.27
610.87	8.02
611.319	7.85
611.768	8.73
612.218	8.25
612.667	8.6
613.116	8.84
613.565	8.1
614.014	8.01
614.463	8.27
614.912	8.9
615.361	8.73
615.81	8.4
616.258	7.99
616.707	8.82
617.156	8.84
617.605	8.07
618.054	8.74
618.502	9.03
618.951	8.55
619.4	8.22
619.848	9.14
620.297	8.41
620.745	8.65
621.194	8.43
621.642	8.56
622.091	8.8
622.539	8.42
622.988	8.55
623.436	8.07
623.885	8.68
624.333	8.64
624.781	9.08
625.23	9.23
625.678	8.24
626.126	8.72
626.574	8.78
627.022	8.94
627.471	8.48
627.919	8.5
628.367	8.64
628.815	8.91
629.263	8.58
629.711	9.1
630.159	8.61
630.607	8.16
631.055	9.1
631.503	8.86
631.95	9.16
632.398	8.68
632.846	8.48
633.294	8.88
633.742	9.11
634.189	8.73
634.637	9.08
635.085	9.28
635.532	8.65
635.98	8.87
636.427	9.13
636.875	9.12
637.323	9.28
637.77	9.25
638.217	9.12
638.665	9.18
639.112	9.46
639.56	9.48
640.007	9.24
640.454	8.71
640.902	9.3
641.349	8.73
641.796	9.23
642.243	8.49
642.69	9.06
643.138	9.32
643.585	8.9
644.032	8.99
644.479	8.88
644.926	9.28
645.373	9.46
645.82	9.23
646.267	8.86
646.714	9.15
647.161	9.05
647.607	10.16
648.054	9.71
648.501	9.45
648.948	9.13
649.395	9.59
649.841	9.78
650.288	9.51
650.735	9.2
651.181	9.08
651.628	9.83
652.075	9.51
652.521	9.6
652.968	9.59
653.414	9.41
653.861	9.43
654.307	9.83
654.753	9.82
655.2	9.89
655.646	9.64
656.092	9.76
656.539	9.43
656.985	9.63
657.431	9.6
657.877	9.64
658.324	10.03
658.77	9.57
659.216	10.09
659.662	10.49
660.108	9.81
660.554	9.93
661	9.82
661.446	9.81
661.892	10.18
662.338	9.52
662.784	10.27
663.23	9.82
663.675	9.78
664.121	9.7
664.567	9.79
665.013	9.89
665.458	9.87
665.904	9.87
666.35	9.5
666.795	9.95
667.241	9.88
667.687	10.15
668.132	9.82
668.578	10.5
669.023	10.23
669.469	9.46
669.914	10.01
670.359	10.21
670.805	9.48
671.25	10.5
671.695	9.66
672.141	10.09
672.586	10.34
673.031	10.67
673.476	10.09
673.922	10.29
674.367	9.99
674.812	10.44
675.257	9.86
675.702	10.31
676.147	10.09
676.592	10.12
677.037	10.13
677.482	10.68
677.927	10.18
678.372	10.31
678.817	10.37
679.261	10.75
679.706	10.22
680.151	10.62
680.596	10.48
681.04	10.38
681.485	10.14
681.93	10.22
682.374	10.53
682.819	10.41
683.264	10.37
683.708	10
684.153	10.58
684.597	10.42
685.042	10.75
685.486	10.69
685.93	10.68
686.375	10.17
686.819	10.63
687.263	10.75
687.708	10.37
688.152	10.68
688.596	10.75
689.04	10.75
689.485	10.46
689.929	11.06
690.373	10.47
690.817	10.85
691.261	10.53
691.705	10.85
692.149	10
692.593	11.09
693.037	10.64
693.481	10.98
693.925	10.57
694.369	10.81
694.812	10.74
695.256	10.53
695.7	11.18
696.144	10.63
696.587	10.69
697.031	11.16
697.475	10.76
697.918	11.48
698.362	11.08
698.806	10.84
699.249	10.83
699.693	10.8
700.136	11.11
700.58	10.48
701.023	11
701.466	11.05
701.91	11.18
702.353	10.81
702.796	11.12
703.24	10.6
703.683	11.17
704.126	11.47
704.569	11.13
705.013	11.13
705.456	10.99
705.899	11.37
706.342	11.53
706.785	11.09
707.228	11
707.671	11.06
708.114	11.24
708.557	11.07
709	10.96
709.443	10.98
709.886	11.23
710.328	11.31
710.771	11.39
711.214	11.24
711.657	11.8
712.099	11.27
712.542	11.24
712.985	11.3
713.427	11.23
713.87	11.31
714.313	11.56
714.755	11.41
715.198	11.54
715.64	11.4
716.083	11.83
716.525	11.47
716.967	12.04
717.41	11.68
717.852	11.18
718.295	11.45
718.737	11.54
719.179	11.57
719.621	11.67
720.063	11.79
720.506	12.11
720.948	11.44
721.39	11.51
721.832	11.77
722.274	12.06
722.716	11.72
723.158	11.63
723.6	11.59
724.042	11.74
724.484	11.37
724.926	12.39
725.368	11.61
725.81	11.84
726.251	12.04
726.693	11.86
727.135	11.98
727.577	11.95
728.018	11.58
728.46	11.43
728.902	11.5
729.343	11.95
729.785	11.64
730.226	12.25
730.668	11.67
731.109	11.78
731.551	12.02
731.992	12.29
732.434	12.08
732.875	11.75
733.316	12.13
733.758	12.41
734.199	12.13
734.64	12.01
735.081	11.8
735.523	11.83
735.964	12.29
736.405	12.29
736.846	11.56
737.287	11.94
737.728	11.99
738.169	12.69
738.61	11.77
739.051	12.42
739.492	12.05
739.933	12.32
740.374	12.27
740.815	12.15
741.256	11.98
741.696	12.26
742.137	12.05
742.578	12.07
743.019	12.13
743.459	12
743.9	12.67
744.341	12.72
744.781	12.81
745.222	12.2
745.662	12.41
746.103	12.39
746.543	12.03
746.984	12.46
747.424	12.44
747.865	12.37
748.305	12.48
748.745	12.6
749.186	12.48
749.626	12.35
750.066	12.75
750.506	12.68
750.947	12.22
751.387	12.56
751.827	12.9
752.267	12.28
752.707	12.84
753.147	12.6
753.587	12.83
754.027	12.5
754.467	13.05
754.907	12.65
755.347	12.67
755.787	12.74
756.227	13.28
756.667	12.8
757.107	12.92
757.546	12.8
757.986	12.76
758.426	12.51
758.865	12.42
759.305	12.94
759.745	12.84
760.184	13.29
760.624	12.95
761.063	13.13
761.503	12.89
761.943	13.42
762.382	12.67
762.821	13
763.261	13.42
763.7	12.98
764.14	12.5
764.579	13.08
765.018	13.46
765.457	13.27
765.897	13.11
766.336	12.99
766.775	13.06
767.214	12.96
767.653	13.39
768.092	13.02
768.531	13.18
768.97	13.46
769.409	13.26
769.848	13.05
770.287	13.31
770.726	13.63
771.165	13.25
771.604	13.21
772.043	13.42
772.482	13.64
772.92	13.66
773.359	12.95
773.798	13.55
774.237	12.95
774.675	13.6
775.114	13.29
775.553	13.51
775.991	13.75
776.43	13.86
776.868	13.1
777.307	14.02
777.745	13.73
778.184	13.47
778.622	13.77
779.06	13.28
779.499	13.66
779.937	13.4
780.375	13.35
780.814	13.95
781.252	13.82
781.69	13.8
782.128	13.88
782.566	13.28
783.004	13.95
783.443	13.78
783.881	13.41
784.319	13.85
784.757	14.11
785.195	14
785.633	13.6
786.071	13.93
786.508	13.53
786.946	13.78
787.384	13.73
787.822	13.95
788.26	13.78
788.697	13.61
789.135	14.17
789.573	13.77
790.011	13.56
790.448	14.1
790.886	13.91
791.323	14.11
791.761	13.84
792.198	14.13
792.636	13.92
793.073	14.13
793.511	13.93
793.948	14.32
794.386	13.94
794.823	14.03
795.26	14.06
795.698	14
796.135	14.32
796.572	14.32
797.009	13.65
797.446	14.27
797.884	14.39
798.321	14.19
798.758	14.39
799.195	14.77
799.632	14.22
800.069	14.17
800.506	14.06
800.943	14.27
801.38	14.21
801.817	14.22
802.254	14.61
802.69	14.62
803.127	14.45
803.564	14.5
804.001	14.48
804.438	14.62
804.874	14.41
805.311	14.29
805.748	14.49
806.184	14.61
806.621	14.54
807.057	14.64
807.494	14.56
807.93	14.6
808.367	14.66
808.803	14.65
809.24	14.59
809.676	14.9
810.112	14.81
810.549	14.92
810.985	15.06
811.421	14.84
811.857	14.72
812.294	14.96
812.73	15.02
813.166	14.73
813.602	14.68
814.038	15.16
814.474	14.67
814.91	14.84
815.346	14.9
815.782	14.79
816.218	14.81
816.654	15.18
817.09	14.82
817.526	14.89
817.962	14.89
818.398	14.98
818.833	15
819.269	14.88
819.705	15.36
820.141	14.98
820.576	14.56
821.012	15.27
821.447	15.42
821.883	15.19
822.319	15.4
822.754	14.86
823.19	15.18
823.625	15.15
824.061	15.19
824.496	15.35
824.931	15.22
825.367	15.28
825.802	14.88
826.237	15.36
826.673	15.25
827.108	15.04
827.543	15.57
827.978	15.42
828.413	15.07
828.849	15.49
829.284	15.28
829.719	15.28
830.154	15.14
830.589	15.45
831.024	15.39
831.459	15.54
831.894	15.61
832.329	15.59
832.763	15.25
833.198	15.63
833.633	16.12
834.068	15.53
834.503	15.46
834.937	15.63
835.372	15.82
835.807	15.32
836.241	15.58
836.676	15.88
837.111	15.82
837.545	15.56
837.98	16
838.414	15.97
838.849	15.36
839.283	16.17
839.717	16
840.152	15.94
840.586	15.6
841.021	15.99
841.455	15.7
841.889	15.79
842.323	15.99
842.758	15.83
843.192	15.44
843.626	15.72
844.06	16.3
844.494	16.03
844.928	15.83
845.362	16.24
845.796	16.21
846.23	16.17
846.664	15.92
847.098	16.15
847.532	16.2
847.966	16.15
848.4	16.14
848.834	16.32
849.267	16.17
849.701	16.16
850.135	16.24
850.569	16.11
851.002	16.39
851.436	16.07
851.87	16
852.303	16.34
852.737	16.05
853.17	16.11
853.604	16.58
854.037	16.39
854.471	16.53
854.904	16.54
855.337	16.08
855.771	16.38
856.204	16.27
856.637	16.32
857.071	16.57
857.504	16.72
857.937	16.48
858.37	16.56
858.804	16.42
859.237	16.68
859.67	16.63
860.103	16.68
860.536	16.33
860.969	16.25
861.402	16.86
861.835	16.81
862.268	16.4
862.701	16.41
863.134	16.61
863.566	16.91
863.999	16.64
864.432	16.67
864.865	16.73
865.298	16.49
865.73	16.77
866.163	16.8
866.596	16.88
867.028	16.41
867.461	16.63
867.893	16.82
868.326	16.45
868.758	16.64
869.191	16.79
869.623	16.87
870.056	17.01
870.488	17.11
870.92	16.7
871.353	17.25
871.785	16.73
872.217	16.91
872.65	16.95
873.082	17.1
873.514	17.37
873.946	17.1
874.378	17.05
874.81	16.95
875.243	17.1
875.675	17.15
876.107	17.09
876.539	16.82
876.971	17.11
877.403	17
877.834	17.09
878.266	17.06
878.698	17.37
879.13	17.17
879.562	17.35
879.994	17.46
880.425	17.04
880.857	17.18
881.289	17.57
881.72	17.3
882.152	17.2
882.584	17.29
883.015	17.72
883.447	17.34
883.878	17.23
884.31	17.36
884.741	17.38
885.173	17.25
885.604	17.46
886.035	17.45
886.467	17.41
886.898	17.74
887.329	17.68
887.76	17.52
888.192	17.7
888.623	17.39
889.054	17.72
889.485	17.65
889.916	17.6
890.347	17.53
890.778	17.51
891.209	17.58
891.64	17.4
892.071	17.96
892.502	17.81
892.933	17.62
893.364	17.62
893.795	17.87
894.226	17.93
894.657	17.62
895.087	17.8
895.518	17.63
895.949	17.89
896.38	18.1
896.81	17.94
897.241	17.43
897.671	18.05
898.102	17.46
898.533	17.91
898.963	17.45
899.394	17.86
899.824	18.11
900.254	17.93
900.685	18.09
901.115	17.89
901.546	18.1
901.976	18.1
902.406	18.04
902.836	18.17
903.267	18.24
903.697	17.79
904.127	18.03
904.557	17.97
904.987	18.15
905.417	17.97
905.847	18.18
906.277	17.99
906.707	17.92
907.137	17.78
907.567	18.26
907.997	17.94
908.427	18.37
908.857	18.13
909.287	18.46
909.717	18.05
910.146	18.31
910.576	18.26
911.006	18.25
911.436	17.99
911.865	18.39
912.295	18.24
912.724	18.4
913.154	18.39
913.584	18.29
914.013	18.23
914.443	18.52
914.872	18.05
915.302	18.24
915.731	18.7
916.16	18.42
916.59	18.19
917.019	18.37
917.448	18.58
917.878	18.44
918.307	18.44
918.736	18.59
919.165	18.58
919.594	18.51
920.023	18.81
920.452	18.29
920.882	18.38
921.311	18.56
921.74	18.43
922.169	18.4
922.597	18.59
923.026	18.48
923.455	18.46
923.884	18.37
924.313	18.79
924.742	18.49
925.171	18.61
925.599	18.55
926.028	18.88
926.457	18.8
926.885	18.5
927.314	18.71
927.743	18.9
928.171	18.67
928.6	18.93
929.028	18.65
929.457	18.66
929.885	18.77
930.314	18.62
930.742	19.07
931.17	18.79
931.599	18.72
932.027	19.06
932.455	18.73
932.884	19.09
933.312	18.87
933.74	18.67
934.168	19.1
934.596	19.34
935.025	18.9
935.453	18.76
935.881	18.94
936.309	19.04
936.737	18.86
937.165	18.83
937.593	19.21
938.021	18.97
938.449	18.66
938.876	18.9
939.304	18.79
939.732	19.07
940.16	18.91
940.588	18.54
941.015	18.88
941.443	18.68
941.871	19.25
942.298	18.91
942.726	18.71
943.154	18.73
943.581	18.82
944.009	18.55
944.436	19.6
944.864	19.27
945.291	18.94
945.718	18.77
946.146	18.51
946.573	18.63
947.001	18.97
947.428	19.54
947.855	19.13
948.282	18.71
948.71	19.08
949.137	19.24
949.564	18.89
949.991	18.66
950.418	19.36
950.845	18.92
951.272	19.34
951.699	18.94
952.126	19.44
952.553	19.57
952.98	19.25
953.407	19.52
953.834	18.98
954.261	19.5
954.688	19.15
955.114	19.06
955.541	19.33
955.968	19.38
956.395	19.28
956.821	19.08
957.248	19.11
957.674	19.23
958.101	19.28
958.528	19.25
958.954	19.17
959.381	19.21
959.807	19.25
960.234	19.43
960.66	19.34
961.086	19.18
961.513	19.31
961.939	19.33
962.365	19.37
962.792	19.41
963.218	19.25
963.644	19.24
964.07	19.59
964.496	19.53
964.923	19.67
965.349	19.72
965.775	19.34
966.201	19.28
966.627	19.56
967.053	19.31
967.479	19.27
967.905	19.48
968.331	19.39
968.756	19.33
969.182	19.75
969.608	19.45
970.034	19.73
970.46	19.26
970.885	19.39
971.311	19.27
971.737	19.59
972.162	19.58
972.588	19.21
973.014	19.72
973.439	19.43
973.865	19.59
974.29	19.53
974.716	19.58
975.141	20.02
975.567	19.77
975.992	19.87
976.417	19.36
976.843	19.68
977.268	19.6
977.693	19.68
978.119	19.93
978.544	19.65
978.969	19.75
979.394	19.4
979.819	19.47
980.244	19.77
980.669	19.63
981.095	20.02
981.52	19.75
981.945	20
982.369	19.91
982.794	19.93
983.219	19.81
983.644	19.99
984.069	19.57
984.494	19.94
984.919	19.94
985.343	19.84
985.768	19.66
986.193	19.87
986.618	19.75
987.042	19.8
987.467	19.7
987.891	19.65
988.316	20.01
988.741	19.79
989.165	19.92
989.59	19.82
990.014	19.84
990.438	19.96
990.863	19.68
991.287	19.9
991.712	19.83
992.136	20.14
992.56	20.1
992.984	19.97
993.409	19.98
993.833	19.72
994.257	19.97
994.681	20.07
995.105	19.85
995.529	20.03
995.953	20.03
996.377	19.96
996.801	20.02
997.225	19.79
997.649	20.06
998.073	20.02
998.497	20.19
998.921	20.27
999.345	19.97
999.769	20.17
1000.192	20.2
1000.616	20.24
1001.04	20.2
1001.464	20.46
1001.887	20.35
1002.311	20.38
1002.734	20.32
1003.158	20.25
1003.582	20.43
1004.005	20.4
1004.429	20.25
1004.852	20.35
1005.275	20.38
1005.699	20.35
1006.122	20.32
1006.546	20.14
1006.969	20.17
1007.392	20.15
1007.815	20.64
1008.239	20.19
1008.662	20.51
1009.085	20.53
1009.508	20.33
1009.931	20.44
1010.354	20.45
1010.778	20.54
1011.201	20.37
1011.624	20.38
1012.047	20.2
1012.469	20.44
1012.892	20.22
1013.315	20.33
1013.738	20.64
1014.161	20.62
1014.584	20.6
1015.007	20.54
1015.429	20.5
1015.852	20.68
1016.275	20.49
1016.697	20.74
1017.12	20.69
1017.543	20.33
1017.965	20.64
1018.388	20.46
1018.81	20.54
1019.233	20.64
1019.655	20.6
1020.078	20.57
1020.5	20.47
1020.922	20.68
1021.345	20.47
1021.767	20.7
1022.189	20.8
1022.612	20.61
1023.034	20.78
1023.456	20.91
1023.878	20.96
1024.301	20.56
1024.723	20.6
1025.145	20.85
1025.567	20.93
1025.989	20.92
1026.411	20.76
1026.833	20.77
1027.255	21.12
1027.677	20.49
1028.099	20.91
1028.52	20.89
1028.942	20.81
1029.364	20.88
1029.786	20.9
1030.208	20.82
1030.629	20.84
1031.051	20.6
1031.473	20.84
1031.894	20.91
1032.316	20.99
1032.738	20.7
1033.159	20.78
1033.581	21.12
1034.002	21.14
1034.424	21.06
1034.845	20.92
1035.267	20.87
1035.688	20.82
1036.109	20.81
1036.531	20.71
1036.952	21.37
1037.373	21.05
1037.794	20.77
1038.216	21.1
1038.637	21.13
1039.058	21.18
1039.479	20.82
1039.9	21.04
1040.321	20.92
1040.742	21.29
1041.163	20.87
1041.584	20.95
1042.005	20.87
1042.426	21.07
1042.847	20.8
1043.268	21.1
1043.689	21.14
1044.11	21.36
1044.53	20.96
1044.951	20.87
1045.372	21.24
1045.793	20.87
1046.213	21.1
1046.634	20.72
1047.055	21.09
1047.475	21.25
1047.896	20.73
1048.316	21.41
1048.737	20.92
1049.157	21.06
1049.578	20.82
1049.998	21.85
1050.419	20.94
1050.839	21.03
1051.259	21.12
1051.68	21.31
1052.1	21.1
1052.52	21.32
1052.94	21.31
1053.361	21.6
1053.781	20.76
1054.201	20.44
1054.621	21.36
1055.041	21.26
1055.461	20.99
1055.881	21.11
1056.301	21.67
1056.721	21.12
1057.141	21.12
1057.561	21.31
1057.981	21.55
1058.401	21.61
1058.82	20.88
1059.24	21.15
1059.66	20.58
1060.08	21.19
1060.499	21.43
1060.919	21.49
1061.339	21.27
1061.758	21.14
1062.178	21.45
1062.598	20.71
1063.017	21.27
1063.437	21.44
1063.856	21.14
1064.276	21.53
1064.695	20.77
1065.114	20.37
1065.534	21.85
1065.953	21.38
1066.372	21.32
1066.792	20.95
1067.211	21.25
1067.63	20.52
1068.049	20.72
1068.469	21
1068.888	21.45
1069.307	21.37
1069.726	21.07
1070.145	21.2
1070.564	22.01
1070.983	20.84
1071.402	22.33
1071.821	22.11
1072.24	21.6
1072.659	21.1
1073.078	20.92
1073.496	21.32
1073.915	21.68
1074.334	21.42
1074.753	20.84
1075.171	21.46
1075.59	21.36
1076.009	21.17
1076.427	21.76
1076.846	20.73
1077.265	20.95
1077.683	21.4
1078.102	21.87
1078.52	21.38
1078.939	21.11
1079.357	21.11
1079.776	21.46
1080.194	21.31
1080.612	22.09
1081.031	20.77
1081.449	21.05
1081.867	19.36
1082.285	20.77
1082.704	20.69
1083.122	20.82
1083.54	21.83
1083.958	21.62
1084.376	21.03
1084.794	21.72
1085.212	20.98
1085.63	21.53
1086.048	20.64
1086.466	21.39
1086.884	20.87
1087.302	20.92
1087.72	20.4
1088.138	21.66
1088.555	21.1
1088.973	21.35
1089.391	21.88
1089.809	21.48
1090.226	21.2
1090.644	21.18
1091.062	20.64
1091.479	21.06
1091.897	21.43
1092.314	21.04
1092.732	21.07
1093.15	21.46
1093.567	21.07
1093.984	21.66
1094.402	22.21
1094.819	20.87
1095.237	22.16
1095.654	20.97
1096.071	20.8
1096.488	20.77
1096.906	21.36
1097.323	20.56
1097.74	20.86
1098.157	21.64
1098.574	20.42
1098.991	20.56
1099.409	19.83
1099.826	20.91
1100.243	20.88
1100.66	20.39
1101.077	20.04
1101.494	21.34
1101.91	21.54
1102.327	20.68
1102.744	20.46
1103.161	20.24
1103.578	20.6
1103.994	21.72
1104.411	21.33
1104.828	21.96
1105.245	19.62
1105.661	21.6
1106.078	20.61
1106.494	20.57
1106.911	18.66
1107.328	19.45
1107.744	21.05
1108.161	20.24
1108.577	18.23
1108.993	19.17
1109.41	20.84
1109.826	20.78
1110.242	20.9
1110.659	20.03
1111.075	17.83
1111.491	22.77
1111.908	19.31
1112.324	19.88
1112.74	18.43
1113.156	16.36
1113.572	21.07
1113.988	18.95
1114.404	19.53
1114.82	18.08
1115.236	17.37
1115.652	20.21
1116.068	19.32
1116.484	19.79
1116.9	21.52
1117.316	16.71
1117.732	-2.56
1118.147	38.89
1118.563	-16.67
1118.979	133.33
