Data from JCR0018_PreoccularBrown_Reflection_00001.txt Node
Date: Thu Jul 23 16:36:29 ACST 2020
User: Stacey Dix
Spectrometer: MAYP113282
Scans to average: 1
Trigger mode: 0
Integration Time (sec): 1.000000E-1
Electric dark correction enabled: true
Boxcar width: 0
XAxis mode: Wavelengths
Number of Pixels in Spectrum: 2068
>>>>>Begin Spectral Data<<<<<
198.791	-491.67
199.266	116.67
199.74	58.33
200.215	0
200.69	-7.99
201.164	5.87
201.639	7.88
202.114	11.76
202.588	24.91
203.063	22.29
203.537	10.15
204.012	19.8
204.486	15.32
204.961	11.06
205.435	1.12
205.909	26.75
206.384	7.64
206.858	2.02
207.332	-0.66
207.807	7.7
208.281	24
208.755	3.83
209.229	6.29
209.703	23.64
210.177	5.31
210.651	-0.58
211.126	26.05
211.6	6.69
212.074	25.11
212.548	12.83
213.021	11.22
213.495	18.56
213.969	0.11
214.443	3.46
214.917	13.97
215.391	9.98
215.864	10.56
216.338	15.56
216.812	10.9
217.286	4.1
217.759	18.06
218.233	7.48
218.706	9
219.18	9.42
219.654	8.58
220.127	6.63
220.6	1.59
221.074	6.61
221.547	11.74
222.021	0.99
222.494	4.26
222.967	3.97
223.441	1.16
223.914	12.33
224.387	4.77
224.86	5.3
225.334	3.55
225.807	4.9
226.28	4.91
226.753	2.59
227.226	5.51
227.699	5.47
228.172	3.12
228.645	5.02
229.118	3.4
229.591	2.99
230.064	2.24
230.537	1.91
231.01	4.85
231.482	1.29
231.955	3.96
232.428	4.08
232.901	0.36
233.373	3.21
233.846	1.85
234.319	3.33
234.791	2.49
235.264	1.42
235.736	2.02
236.209	2.47
236.681	2.4
237.154	1.77
237.626	3.38
238.099	2.45
238.571	3.74
239.044	2.67
239.516	2.06
239.988	1.69
240.46	3.58
240.933	1.47
241.405	1.21
241.877	1.18
242.349	2.24
242.821	3.59
243.293	2.17
243.765	3.05
244.237	3.05
244.71	2.23
245.181	1.94
245.653	3.05
246.125	2.71
246.597	1.8
247.069	2.17
247.541	2.18
248.013	2.72
248.485	2.39
248.956	3.81
249.428	1.27
249.9	2.33
250.371	2.94
250.843	2.01
251.315	1.26
251.786	2.55
252.258	1.65
252.729	2.42
253.201	2.11
253.672	1.36
254.144	1.03
254.615	1.39
255.086	1.67
255.558	1.53
256.029	1.68
256.5	1.57
256.972	1.08
257.443	1.58
257.914	1.52
258.385	1.38
258.856	2.34
259.327	2.04
259.799	1.42
260.27	1.5
260.741	1.62
261.212	1.56
261.683	1.04
262.154	1.72
262.624	1.32
263.095	1.38
263.566	1.82
264.037	1.67
264.508	0.78
264.979	1.7
265.449	0.73
265.92	1.76
266.391	1.81
266.861	1.3
267.332	1.83
267.803	1.36
268.273	2.08
268.744	1.14
269.214	1.41
269.685	1.06
270.155	1.21
270.626	1.85
271.096	1.72
271.566	1.65
272.037	2.35
272.507	1.14
272.977	0.66
273.448	0.73
273.918	1.58
274.388	1.27
274.858	1.3
275.328	1.33
275.798	1.02
276.268	1.48
276.738	1.23
277.208	1.13
277.678	1.71
278.148	1.53
278.618	0.51
279.088	1.79
279.558	1.12
280.028	1.09
280.498	0.91
280.968	1.76
281.437	1.29
281.907	1.37
282.377	0.83
282.847	0.92
283.316	1.76
283.786	0.65
284.255	0.68
284.725	1.35
285.194	1.76
285.664	1.24
286.133	1.44
286.603	1.67
287.072	0.58
287.542	0.92
288.011	1.28
288.48	0.64
288.95	1.72
289.419	1.4
289.888	0.99
290.357	0.99
290.827	1.22
291.296	1.28
291.765	1.4
292.234	1.9
292.703	1.08
293.172	1.27
293.641	0.84
294.11	1.46
294.579	1.18
295.048	1.3
295.517	1.52
295.986	1.48
296.455	0.96
296.923	0.76
297.392	1.2
297.861	0.56
298.33	0.9
298.798	1.16
299.267	1.76
299.736	0.71
300.204	0.57
300.673	0.92
301.141	1.15
301.61	1.48
302.079	0.57
302.547	2.19
303.015	1.75
303.484	1.15
303.952	1.99
304.421	0.9
304.889	1.32
305.357	1.57
305.825	0.6
306.294	1.59
306.762	2
307.23	0.61
307.698	2.1
308.166	0.86
308.634	1.12
309.103	1.21
309.571	1.08
310.039	1.42
310.507	1.17
310.975	1.42
311.442	1.54
311.91	1.31
312.378	0.88
312.846	1.2
313.314	1.46
313.782	1.37
314.249	1.85
314.717	1.12
315.185	1.18
315.652	0.61
316.12	1.03
316.588	2.02
317.055	1.22
317.523	1.05
317.99	0.72
318.458	1.68
318.925	0.76
319.393	1.18
319.86	1.19
320.328	1.91
320.795	0.78
321.262	1.75
321.73	1.25
322.197	1.28
322.664	1.25
323.131	1.68
323.598	1.5
324.066	1.48
324.533	1.46
325	1.83
325.467	2.04
325.934	1.55
326.401	1.89
326.868	1.71
327.335	2.04
327.802	1.81
328.269	2.23
328.735	2.37
329.202	2.4
329.669	2.49
330.136	2.88
330.603	2.6
331.069	2.46
331.536	3.24
332.003	2.76
332.469	3.27
332.936	3.06
333.402	3.36
333.869	3.42
334.336	3.15
334.802	3.86
335.268	3.53
335.735	3.73
336.201	3.03
336.668	4.1
337.134	2.75
337.6	2.94
338.067	4.05
338.533	2.79
338.999	3.8
339.465	3.33
339.931	3.75
340.398	3.24
340.864	3.18
341.33	3.15
341.796	3.54
342.262	4.08
342.728	3.39
343.194	3.5
343.66	3.91
344.126	4.62
344.592	3.06
345.057	4.33
345.523	3.87
345.989	3.92
346.455	3.33
346.921	4.32
347.386	3.81
347.852	2.95
348.318	3.73
348.783	3.26
349.249	3.65
349.714	3.58
350.18	3.87
350.645	3.61
351.111	3.62
351.576	4.27
352.042	3.5
352.507	3.69
352.973	3.15
353.438	3.02
353.903	3.78
354.369	3.07
354.834	3.83
355.299	3.97
355.764	3.22
356.229	3.49
356.695	3.32
357.16	3.7
357.625	3.17
358.09	3.69
358.555	4.8
359.02	3.77
359.485	3.4
359.95	3.07
360.415	4.07
360.879	3.55
361.344	4.08
361.809	3.62
362.274	3.64
362.739	3.13
363.203	3.97
363.668	3.96
364.133	3.58
364.597	3.98
365.062	3.05
365.527	2.85
365.991	4.39
366.456	3.27
366.92	3.43
367.385	3.91
367.849	2.51
368.314	3.03
368.778	3.17
369.242	3.31
369.707	3.29
370.171	3.46
370.635	4.72
371.1	3.09
371.564	3.06
372.028	3.32
372.492	3.79
372.956	3.54
373.42	3.35
373.884	4.1
374.348	4.36
374.812	3.15
375.276	3.93
375.74	3.75
376.204	3.74
376.668	3.81
377.132	3.05
377.596	3.76
378.06	3.78
378.524	3.62
378.987	3.49
379.451	3.46
379.915	3.3
380.378	4.14
380.842	3.53
381.306	4.06
381.769	3.69
382.233	4.07
382.696	3.88
383.16	3.97
383.623	4.29
384.087	3.69
384.55	3.86
385.014	4.22
385.477	3.54
385.94	4.04
386.404	3.89
386.867	3.76
387.33	3.99
387.793	3.94
388.256	3.98
388.72	4.41
389.183	3.94
389.646	4.39
390.109	3.46
390.572	3.87
391.035	3.69
391.498	3.84
391.961	3.59
392.424	4.29
392.887	4.41
393.35	4.16
393.812	3.57
394.275	3.58
394.738	3.95
395.201	4.54
395.664	3.95
396.126	3.49
396.589	4.15
397.052	3.68
397.514	3.69
397.977	3.61
398.439	4.16
398.902	3.69
399.364	4.2
399.827	3.97
400.289	4.53
400.752	3.98
401.214	4.06
401.676	4.15
402.139	3.87
402.601	3.83
403.063	3.89
403.525	4.33
403.988	4.15
404.45	3.85
404.912	4.09
405.374	3.46
405.836	4
406.298	4.3
406.76	3.94
407.222	4.12
407.684	3.92
408.146	4.1
408.608	4.57
409.07	4.28
409.532	3.28
409.994	4.59
410.456	4.09
410.917	3.63
411.379	4.93
411.841	3.92
412.303	4.5
412.764	3.89
413.226	3.6
413.687	3.78
414.149	4.17
414.611	3.64
415.072	3.61
415.534	4.17
415.995	3.84
416.457	3.65
416.918	3.43
417.379	3.71
417.841	4.23
418.302	4.51
418.763	4.82
419.225	4.63
419.686	4.13
420.147	4.07
420.608	4.45
421.069	3.92
421.53	3.89
421.991	4.09
422.453	4.02
422.914	3.79
423.375	3.91
423.836	4.05
424.297	4.64
424.757	3.89
425.218	3.84
425.679	3.99
426.14	4.33
426.601	4.41
427.062	3.64
427.522	3.56
427.983	3.77
428.444	4.87
428.904	3.23
429.365	3.63
429.826	4.09
430.286	3.73
430.747	4.78
431.207	4.57
431.668	4.56
432.128	4.19
432.589	3.43
433.049	4.12
433.509	4.45
433.97	4.21
434.43	4.36
434.89	3.9
435.351	4.72
435.811	3.68
436.271	3.45
436.731	5.03
437.191	4.82
437.651	4.02
438.112	5.8
438.572	3.51
439.032	3.48
439.492	5.64
439.952	4.47
440.412	5.4
440.871	3.95
441.331	4.79
441.791	4.26
442.251	6.09
442.711	4.08
443.171	5.93
443.63	4.47
444.09	4.24
444.55	4.86
445.009	4.83
445.469	4.68
445.929	4.14
446.388	4.87
446.848	4.44
447.307	5.47
447.767	4.92
448.226	4.1
448.686	5.23
449.145	4.15
449.604	5.13
450.064	4.91
450.523	4.6
450.982	5.38
451.442	4.99
451.901	4.5
452.36	4.51
452.819	3.99
453.278	4.22
453.737	5
454.197	4.29
454.656	4.2
455.115	4.02
455.574	4.27
456.033	5.79
456.492	5.34
456.95	4.34
457.409	4.91
457.868	5.79
458.327	4.46
458.786	4.4
459.245	4.03
459.703	5.04
460.162	4.65
460.621	4.42
461.079	4.32
461.538	3.72
461.997	4.76
462.455	4.12
462.914	3.89
463.372	4.74
463.831	5.51
464.289	3.82
464.748	5.3
465.206	5.24
465.664	5.07
466.123	5.25
466.581	4.98
467.039	5.29
467.497	3.68
467.956	4.3
468.414	4.76
468.872	4.73
469.33	5.17
469.788	5.06
470.246	4.94
470.704	5.86
471.162	4.22
471.62	6.15
472.078	4.02
472.536	5.6
472.994	5.07
473.452	5.78
473.91	6.06
474.368	5.48
474.826	6.66
475.283	4.66
475.741	3.81
476.199	3.95
476.656	5.81
477.114	4.67
477.572	5.4
478.029	5.54
478.487	5.75
478.944	4.85
479.402	4.83
479.859	5.39
480.317	4.2
480.774	5.88
481.232	4.73
481.689	5.14
482.146	6.48
482.604	5.09
483.061	4.11
483.518	6.81
483.975	6.13
484.433	3.66
484.89	5.61
485.347	5.73
485.804	3.89
486.261	2.93
486.718	5.85
487.175	5.17
487.632	5.01
488.089	4.3
488.546	5.37
489.003	6.08
489.46	6.04
489.917	5.13
490.373	5.95
490.83	4.5
491.287	4.55
491.744	7.02
492.2	6.53
492.657	5.81
493.114	4.65
493.57	4.57
494.027	6.12
494.484	6.21
494.94	5.75
495.397	5.49
495.853	5.51
496.31	5.73
496.766	5.48
497.222	6.36
497.679	5.24
498.135	5.17
498.591	5.32
499.048	6.3
499.504	5.18
499.96	5.6
500.416	7.56
500.872	5.98
501.329	6.52
501.785	5.5
502.241	6.61
502.697	5.73
503.153	5.67
503.609	6.85
504.065	5.2
504.521	6.2
504.977	5.8
505.432	6.3
505.888	6.71
506.344	6.39
506.8	7.2
507.256	5.36
507.711	6.73
508.167	5.41
508.623	6.3
509.078	6.69
509.534	6.25
509.99	6.81
510.445	6.01
510.901	6.27
511.356	6.69
511.812	7.27
512.267	6.03
512.722	6.18
513.178	6.06
513.633	6.37
514.089	6.98
514.544	5.79
514.999	6.34
515.454	6.49
515.91	6.72
516.365	6.34
516.82	6.66
517.275	7.46
517.73	6.71
518.185	6.72
518.64	7.82
519.095	7.01
519.55	6.42
520.005	6.55
520.46	7.85
520.915	6.49
521.37	6.91
521.825	5.88
522.28	7.16
522.734	6.03
523.189	6.77
523.644	6.65
524.099	7.1
524.553	6.49
525.008	6.93
525.462	7.64
525.917	6.79
526.372	6.91
526.826	7.9
527.281	6.56
527.735	7.2
528.19	6.46
528.644	7.7
529.098	7.62
529.553	7.24
530.007	7.8
530.461	6.81
530.916	7.44
531.37	7.2
531.824	7.5
532.278	7
532.732	6.72
533.186	7.39
533.641	7.41
534.095	7.21
534.549	7.65
535.003	7.03
535.457	7.72
535.911	7.74
536.365	7.32
536.818	7.11
537.272	7.58
537.726	7.23
538.18	7.63
538.634	7.46
539.087	7.51
539.541	7.01
539.995	7.01
540.449	7.34
540.902	8.31
541.356	7.5
541.809	7.04
542.263	6.32
542.716	8.14
543.17	7.67
543.623	6.89
544.077	7.98
544.53	7.29
544.984	6.98
545.437	7.4
545.89	7.6
546.344	7.18
546.797	7.45
547.25	7.23
547.703	6.79
548.157	8.55
548.61	7.08
549.063	8.76
549.516	6.39
549.969	7.12
550.422	8.16
550.875	6.81
551.328	6.69
551.781	7.6
552.234	6.87
552.687	7.65
553.14	7.48
553.592	7.54
554.045	7.46
554.498	7.43
554.951	7.89
555.404	8.6
555.856	7.33
556.309	8.3
556.762	7.18
557.214	7.39
557.667	7.65
558.119	8.16
558.572	8.41
559.024	7.84
559.477	7.54
559.929	8.51
560.382	7.86
560.834	8.66
561.286	7.65
561.739	7.92
562.191	7.81
562.643	8.42
563.095	8.69
563.548	8.35
564	8.45
564.452	8.28
564.904	8.34
565.356	8.02
565.808	8.76
566.26	7.76
566.712	7.87
567.164	8.43
567.616	8.19
568.068	9.5
568.52	9.01
568.972	9.01
569.424	7.89
569.876	8.31
570.327	7.98
570.779	7.97
571.231	8.48
571.682	9.05
572.134	8.1
572.586	8.52
573.037	8.94
573.489	8.74
573.941	8.56
574.392	8.35
574.844	8.81
575.295	7.87
575.746	8.56
576.198	8.08
576.649	8.81
577.101	8.53
577.552	9.15
578.003	8.4
578.454	8.23
578.906	8.65
579.357	8.58
579.808	9.07
580.259	8.02
580.71	8.63
581.161	8.91
581.612	8.25
582.064	8.61
582.515	8.33
582.965	8.6
583.416	8.7
583.867	8.17
584.318	9.24
584.769	8.85
585.22	9.07
585.671	8.1
586.122	8.62
586.572	8.98
587.023	8.88
587.474	8.96
587.924	8.89
588.375	9.04
588.826	8.96
589.276	9.04
589.727	8.78
590.177	8.72
590.628	8.6
591.078	8.97
591.529	9.23
591.979	8.71
592.429	9.29
592.88	8.73
593.33	9.45
593.78	9.56
594.231	9.05
594.681	8.36
595.131	9.19
595.581	9.77
596.031	8.99
596.481	9.61
596.932	9.12
597.382	9.06
597.832	9.02
598.282	9.21
598.732	9.65
599.182	9.16
599.632	9.15
600.081	8.1
600.531	9.06
600.981	9.34
601.431	9.58
601.881	9.23
602.33	9.11
602.78	8.79
603.23	9.03
603.679	9.5
604.129	9.43
604.579	9.5
605.028	9.19
605.478	9.53
605.927	9.41
606.377	9.73
606.826	9.59
607.276	9.08
607.725	9.74
608.175	10.06
608.624	9.82
609.073	9.6
609.522	9.43
609.972	9.45
610.421	9.39
610.87	9.85
611.319	9.48
611.768	9.09
612.218	9.2
612.667	9.94
613.116	9.8
613.565	9.96
614.014	9.5
614.463	9.8
614.912	10.01
615.361	9.84
615.81	9.9
616.258	9.59
616.707	9.51
617.156	9.93
617.605	10.16
618.054	9.6
618.502	10.41
618.951	9.91
619.4	10.06
619.848	9.99
620.297	10.15
620.745	9.72
621.194	9.93
621.642	9.71
622.091	9.77
622.539	9.59
622.988	9.94
623.436	9.77
623.885	10.85
624.333	9.6
624.781	10.43
625.23	10.13
625.678	10.06
626.126	10.13
626.574	10.35
627.022	10.63
627.471	9.85
627.919	9.9
628.367	9.89
628.815	10.38
629.263	10.38
629.711	10.45
630.159	10.4
630.607	10.25
631.055	9.95
631.503	10.39
631.95	10.18
632.398	9.99
632.846	10.64
633.294	10.86
633.742	10.4
634.189	10.27
634.637	10.44
635.085	10.34
635.532	11.02
635.98	10.53
636.427	10.86
636.875	10.44
637.323	10.28
637.77	10.28
638.217	11.3
638.665	10.47
639.112	10.23
639.56	10.46
640.007	10.7
640.454	10.24
640.902	10.52
641.349	11.28
641.796	10.61
642.243	10.82
642.69	10.63
643.138	10.55
643.585	10.78
644.032	10.76
644.479	10.91
644.926	10.69
645.373	11.01
645.82	10.79
646.267	11.01
646.714	10.58
647.161	10.63
647.607	11.01
648.054	10.72
648.501	10.8
648.948	10.99
649.395	10.48
649.841	10.53
650.288	10.65
650.735	10.8
651.181	10.63
651.628	10.77
652.075	10.96
652.521	10.75
652.968	11.67
653.414	10.78
653.861	10.77
654.307	10.96
654.753	11.28
655.2	11.12
655.646	11.01
656.092	11.25
656.539	10.94
656.985	10.96
657.431	11.51
657.877	11.12
658.324	11.08
658.77	11.17
659.216	11.63
659.662	12.1
660.108	10.82
660.554	11.62
661	11.38
661.446	11.39
661.892	11.64
662.338	11.46
662.784	11.42
663.23	11.3
663.675	11.89
664.121	11.56
664.567	11.39
665.013	11.42
665.458	11.47
665.904	11.8
666.35	11.2
666.795	11.76
667.241	11.44
667.687	11.66
668.132	11.48
668.578	11.95
669.023	11.48
669.469	10.71
669.914	11.54
670.359	11.65
670.805	11.47
671.25	11.29
671.695	11.57
672.141	11.77
672.586	12.03
673.031	12.28
673.476	11.71
673.922	12.01
674.367	11.36
674.812	12.08
675.257	11.51
675.702	11.86
676.147	11.8
676.592	11.56
677.037	11.9
677.482	12.03
677.927	12.2
678.372	11.85
678.817	12.01
679.261	12.24
679.706	11.92
680.151	12.12
680.596	11.98
681.04	12
681.485	12.6
681.93	12.33
682.374	12.25
682.819	12.1
683.264	11.61
683.708	12.03
684.153	12.63
684.597	11.96
685.042	12.26
685.486	12.23
685.93	12.36
686.375	12.06
686.819	12.72
687.263	12.3
687.708	12.38
688.152	12.55
688.596	12.36
689.04	12.14
689.485	12.48
689.929	12.55
690.373	12.25
690.817	12.9
691.261	12.22
691.705	12.32
692.149	12.42
692.593	12.26
693.037	12.77
693.481	12.65
693.925	12.55
694.369	12.88
694.812	12.25
695.256	12.18
695.7	12.4
696.144	12.52
696.587	12.44
697.031	12.74
697.475	12.7
697.918	13
698.362	12.71
698.806	12.59
699.249	12.76
699.693	12.56
700.136	12.79
700.58	12.48
701.023	12.5
701.466	13.04
701.91	12.96
702.353	12.98
702.796	12.77
703.24	12.91
703.683	12.84
704.126	12.66
704.569	12.86
705.013	13.31
705.456	12.77
705.899	13.15
706.342	12.78
706.785	12.98
707.228	12.48
707.671	12.82
708.114	13.71
708.557	13.51
709	12.77
709.443	13.22
709.886	13.39
710.328	13.06
710.771	13.21
711.214	13.1
711.657	13.3
712.099	12.74
712.542	13.21
712.985	13.49
713.427	12.88
713.87	13.04
714.313	13.28
714.755	13.3
715.198	13.69
715.64	13.64
716.083	13.46
716.525	13.17
716.967	13.69
717.41	13.5
717.852	13.41
718.295	13.58
718.737	13.43
719.179	13.34
719.621	13.93
720.063	12.96
720.506	13.66
720.948	13.73
721.39	13.59
721.832	13.6
722.274	13.57
722.716	13.7
723.158	13.73
723.6	13.67
724.042	13.62
724.484	13.82
724.926	13.82
725.368	13.93
725.81	14.16
726.251	13.62
726.693	13.82
727.135	13.76
727.577	14.27
728.018	14.09
728.46	13.17
728.902	13.85
729.343	13.75
729.785	14.39
730.226	14.18
730.668	13.45
731.109	13.91
731.551	13.71
731.992	14.29
732.434	14.24
732.875	14.13
733.316	13.9
733.758	14.03
734.199	14.28
734.64	14.3
735.081	14.13
735.523	14.09
735.964	14.08
736.405	14.39
736.846	14.29
737.287	13.97
737.728	14.33
738.169	13.94
738.61	14.49
739.051	14.48
739.492	14.02
739.933	14.57
740.374	14.52
740.815	14.6
741.256	13.82
741.696	14.34
742.137	14.85
742.578	14.25
743.019	14.38
743.459	14.55
743.9	14.5
744.341	14.65
744.781	14.49
745.222	14.55
745.662	14.88
746.103	14.41
746.543	14.28
746.984	14.69
747.424	14.58
747.865	15.27
748.305	14.18
748.745	14.78
749.186	14.5
749.626	15.03
750.066	14.88
750.506	14.87
750.947	15.03
751.387	14.8
751.827	14.83
752.267	15.28
752.707	14.53
753.147	14.57
753.587	15.06
754.027	15.19
754.467	14.84
754.907	15.12
755.347	14.9
755.787	15
756.227	15.23
756.667	15.46
757.107	14.89
757.546	14.97
757.986	15.5
758.426	15.12
758.865	15.23
759.305	14.91
759.745	15.1
760.184	14.93
760.624	15.22
761.063	15.28
761.503	15.34
761.943	15.32
762.382	15.53
762.821	15.44
763.261	15.71
763.7	15.36
764.14	15.54
764.579	15.19
765.018	15.44
765.457	15.68
765.897	15.39
766.336	15.05
766.775	15.68
767.214	15.79
767.653	15.24
768.092	14.94
768.531	15.89
768.97	15.51
769.409	15.64
769.848	15.76
770.287	15.55
770.726	15.72
771.165	15.91
771.604	15.73
772.043	15.82
772.482	15.5
772.92	16.28
773.359	16
773.798	15.91
774.237	15.6
774.675	15.84
775.114	15.84
775.553	16.1
775.991	16.12
776.43	16.01
776.868	15.81
777.307	16.65
777.745	15.57
778.184	15.92
778.622	15.92
779.06	16.35
779.499	15.82
779.937	16.14
780.375	15.89
780.814	16.33
781.252	15.87
781.69	16.17
782.128	16.28
782.566	16.1
783.004	16.18
783.443	16.64
783.881	16.23
784.319	16.95
784.757	16.22
785.195	16.45
785.633	16.14
786.071	16.7
786.508	16.6
786.946	16.5
787.384	16.26
787.822	16.43
788.26	16.36
788.697	16.33
789.135	16.87
789.573	16.81
790.011	16.25
790.448	16.12
790.886	16.6
791.323	16.77
791.761	16.98
792.198	16.87
792.636	17.12
793.073	16.79
793.511	17.09
793.948	17.01
794.386	17.16
794.823	16.9
795.26	16.95
795.698	16.71
796.135	17.05
796.572	17.04
797.009	17.4
797.446	17.33
797.884	17.59
798.321	17.18
798.758	16.94
799.195	17.07
799.632	17.33
800.069	17.23
800.506	17.36
800.943	17.39
801.38	17.19
801.817	17.02
802.254	17.19
802.69	17.17
803.127	17.27
803.564	17.37
804.001	17.46
804.438	17.6
804.874	17.12
805.311	17.04
805.748	17.42
806.184	17.36
806.621	17.27
807.057	17.53
807.494	17.74
807.93	17.3
808.367	17.45
808.803	17.46
809.24	17.96
809.676	17.63
810.112	17.65
810.549	17.91
810.985	17.97
811.421	17.74
811.857	17.73
812.294	18.49
812.73	17.94
813.166	17.9
813.602	17.83
814.038	18.47
814.474	17.85
814.91	17.83
815.346	18.11
815.782	18.16
816.218	17.83
816.654	17.99
817.09	18.25
817.526	18.02
817.962	18.52
818.398	18.04
818.833	18.17
819.269	18.3
819.705	18.39
820.141	18.29
820.576	18.31
821.012	18.26
821.447	18.56
821.883	18.42
822.319	18.34
822.754	18.68
823.19	18.72
823.625	18.18
824.061	18.3
824.496	18.39
824.931	18.32
825.367	18.14
825.802	18.51
826.237	18.54
826.673	18.86
827.108	18.53
827.543	18.95
827.978	18.88
828.413	18.42
828.849	18.62
829.284	18.81
829.719	18.53
830.154	18.53
830.589	18.85
831.024	18.83
831.459	19.16
831.894	18.89
832.329	18.72
832.763	19.09
833.198	18.87
833.633	18.91
834.068	18.64
834.503	19.08
834.937	19.05
835.372	18.97
835.807	18.85
836.241	19.12
836.676	19.01
837.111	18.93
837.545	18.87
837.98	19.14
838.414	19.4
838.849	19.04
839.283	19.09
839.717	19.4
840.152	19.24
840.586	19.8
841.021	19.25
841.455	19.31
841.889	19.25
842.323	19.6
842.758	19.17
843.192	19.21
843.626	19.3
844.06	19.49
844.494	19.62
844.928	19.71
845.362	19.62
845.796	19.68
846.23	19.77
846.664	19.35
847.098	19.87
847.532	19.47
847.966	19.83
848.4	19.71
848.834	20.08
849.267	19.71
849.701	20.15
850.135	19.93
850.569	20.26
851.002	19.95
851.436	20.06
851.87	19.82
852.303	19.96
852.737	20.17
853.17	19.81
853.604	20.19
854.037	20.23
854.471	20.27
854.904	20.16
855.337	20.1
855.771	20.53
856.204	20.3
856.637	19.93
857.071	20.17
857.504	20.56
857.937	20.29
858.37	20.58
858.804	20.43
859.237	20.55
859.67	20.57
860.103	20.75
860.536	19.71
860.969	20.35
861.402	20.23
861.835	21.16
862.268	20.41
862.701	20.6
863.134	20.9
863.566	20.77
863.999	20.64
864.432	20.64
864.865	20.84
865.298	20.79
865.73	20.64
866.163	21.04
866.596	20.87
867.028	20.67
867.461	21.09
867.893	20.88
868.326	20.73
868.758	21.02
869.191	20.74
869.623	21.41
870.056	20.77
870.488	21.17
870.92	21.03
871.353	20.98
871.785	21.03
872.217	21.38
872.65	20.99
873.082	21.25
873.514	21.08
873.946	21.03
874.378	21.03
874.81	21.02
875.243	21.77
875.675	21.52
876.107	21.13
876.539	21.27
876.971	21.56
877.403	21.33
877.834	21.46
878.266	21.27
878.698	21.22
879.13	21.5
879.562	21.96
879.994	21.4
880.425	21.58
880.857	21.45
881.289	21.44
881.72	21.39
882.152	21.53
882.584	21.76
883.015	21.72
883.447	21.84
883.878	21.75
884.31	21.95
884.741	21.69
885.173	21.54
885.604	21.6
886.035	21.8
886.467	21.92
886.898	21.66
887.329	22
887.76	22.07
888.192	21.71
888.623	21.91
889.054	22.35
889.485	21.8
889.916	22.06
890.347	22.16
890.778	22.11
891.209	21.81
891.64	21.85
892.071	22.59
892.502	22.16
892.933	22.36
893.364	21.94
893.795	22.03
894.226	22.36
894.657	22.74
895.087	22.23
895.518	22.45
895.949	22.64
896.38	22.59
896.81	22.74
897.241	22.49
897.671	22.85
898.102	22.55
898.533	22.53
898.963	22.31
899.394	22.42
899.824	22.81
900.254	22.71
900.685	22.76
901.115	22.77
901.546	23.06
901.976	22.91
902.406	23.26
902.836	22.78
903.267	22.72
903.697	22.65
904.127	22.94
904.557	23.09
904.987	23.08
905.417	22.44
905.847	22.91
906.277	23.2
906.707	23.06
907.137	22.71
907.567	23.08
907.997	23.12
908.427	23.08
908.857	23.22
909.287	23.1
909.717	23.22
910.146	23.27
910.576	23.12
911.006	23.06
911.436	22.96
911.865	23.38
912.295	23.43
912.724	23.24
913.154	23.45
913.584	23.3
914.013	23.5
914.443	23.24
914.872	23.57
915.302	23.22
915.731	23.77
916.16	23.5
916.59	23.5
917.019	23.73
917.448	23.55
917.878	23.37
918.307	23.63
918.736	23.78
919.165	23.53
919.594	23.32
920.023	23.79
920.452	23.66
920.882	23.82
921.311	23.89
921.74	23.76
922.169	23.89
922.597	23.89
923.026	23.57
923.455	23.65
923.884	23.65
924.313	24.1
924.742	23.85
925.171	24.29
925.599	23.85
926.028	23.91
926.457	24.2
926.885	23.98
927.314	24.15
927.743	24.43
928.171	24.24
928.6	24.1
929.028	23.81
929.457	24.68
929.885	24.11
930.314	24.33
930.742	24.26
931.17	24.4
931.599	24.23
932.027	23.87
932.455	23.92
932.884	24.45
933.312	24.57
933.74	24.55
934.168	24.29
934.596	24.76
935.025	24.25
935.453	24.54
935.881	24.55
936.309	24.38
936.737	24.06
937.165	24.09
937.593	24.13
938.021	24.46
938.449	24.53
938.876	24.28
939.304	24.56
939.732	24.29
940.16	24.58
940.588	24.83
941.015	24.95
941.443	24.58
941.871	24.85
942.298	24.46
942.726	24.96
943.154	24.77
943.581	24.67
944.009	24.49
944.436	25.06
944.864	24.87
945.291	24.59
945.718	24.65
946.146	24.08
946.573	24.43
947.001	24.48
947.428	25.17
947.855	24.91
948.282	24.74
948.71	24.64
949.137	25.22
949.564	24.76
949.991	24.97
950.418	25.31
950.845	24.55
951.272	25.04
951.699	25.15
952.126	25.22
952.553	25.12
952.98	25.34
953.407	25.16
953.834	25.12
954.261	25.17
954.688	25.56
955.114	25.58
955.541	24.99
955.968	25.41
956.395	25.38
956.821	25.13
957.248	25.46
957.674	25.23
958.101	25.46
958.528	25.25
958.954	25.39
959.381	25.4
959.807	25.25
960.234	25.69
960.66	25.47
961.086	25.27
961.513	25.35
961.939	25.38
962.365	25.27
962.792	25.49
963.218	25.63
963.644	25.51
964.07	25.33
964.496	25.52
964.923	25.73
965.349	25.31
965.775	25.56
966.201	25.59
966.627	25.52
967.053	25.65
967.479	25.36
967.905	25.83
968.331	25.8
968.756	25.87
969.182	25.79
969.608	25.38
970.034	25.72
970.46	25.95
970.885	26.15
971.311	25.94
971.737	25.59
972.162	25.98
972.588	25.88
973.014	26.11
973.439	25.58
973.865	25.99
974.29	25.99
974.716	26.04
975.141	25.9
975.567	26.13
975.992	26.07
976.417	26.06
976.843	25.94
977.268	25.98
977.693	26.08
978.119	26.29
978.544	26.04
978.969	26.05
979.394	26.03
979.819	26.09
980.244	26.03
980.669	26.19
981.095	26.48
981.52	26.37
981.945	26.26
982.369	26.28
982.794	26.19
983.219	26.05
983.644	26.41
984.069	26.72
984.494	26.35
984.919	26.43
985.343	26.09
985.768	26.6
986.193	26.56
986.618	26.42
987.042	26.5
987.467	26.16
987.891	26.51
988.316	26.83
988.741	26.39
989.165	26.6
989.59	26.86
990.014	26.42
990.438	26.47
990.863	26.71
991.287	26.65
991.712	26.75
992.136	26.65
992.56	26.93
992.984	26.69
993.409	26.82
993.833	26.5
994.257	26.76
994.681	26.73
995.105	26.72
995.529	26.76
995.953	26.81
996.377	26.98
996.801	26.89
997.225	26.65
997.649	27.03
998.073	26.91
998.497	26.77
998.921	26.87
999.345	26.82
999.769	26.96
1000.192	27.14
1000.616	26.93
1001.04	27.27
1001.464	27.08
1001.887	26.95
1002.311	27.05
1002.734	27.64
1003.158	27.27
1003.582	27.35
1004.005	27.23
1004.429	27.17
1004.852	27.35
1005.275	27.24
1005.699	27.58
1006.122	27.61
1006.546	27.26
1006.969	27.87
1007.392	27.1
1007.815	27.45
1008.239	27.33
1008.662	27.47
1009.085	27.28
1009.508	27.43
1009.931	27.6
1010.354	27.29
1010.778	27.49
1011.201	27.42
1011.624	27.49
1012.047	27.27
1012.469	27.65
1012.892	27.53
1013.315	27.41
1013.738	27.67
1014.161	28.02
1014.584	27.71
1015.007	27.89
1015.429	27.88
1015.852	27.5
1016.275	27.35
1016.697	27.87
1017.12	27.99
1017.543	27.46
1017.965	28.05
1018.388	27.57
1018.81	27.88
1019.233	27.72
1019.655	28.14
1020.078	27.81
1020.5	27.81
1020.922	27.77
1021.345	27.67
1021.767	27.76
1022.189	27.84
1022.612	27.66
1023.034	28.01
1023.456	28.15
1023.878	28.09
1024.301	28.04
1024.723	28.12
1025.145	27.78
1025.567	28.13
1025.989	28.29
1026.411	27.87
1026.833	28.22
1027.255	28.3
1027.677	27.88
1028.099	27.81
1028.52	28
1028.942	28.68
1029.364	28.01
1029.786	27.99
1030.208	27.99
1030.629	28.35
1031.051	28.09
1031.473	28.49
1031.894	28.48
1032.316	28.3
1032.738	28.14
1033.159	28.43
1033.581	28.34
1034.002	28.29
1034.424	28.49
1034.845	28.02
1035.267	28.65
1035.688	28.27
1036.109	28.59
1036.531	28.44
1036.952	28.38
1037.373	28.5
1037.794	28.42
1038.216	28.56
1038.637	28.79
1039.058	28.49
1039.479	28.37
1039.9	28.32
1040.321	28.34
1040.742	28.7
1041.163	28.83
1041.584	28.11
1042.005	28.63
1042.426	28.51
1042.847	28.75
1043.268	28.41
1043.689	28.68
1044.11	29.23
1044.53	28.7
1044.951	28.92
1045.372	28.6
1045.793	28.32
1046.213	28.73
1046.634	28.07
1047.055	28.51
1047.475	28.48
1047.896	28.2
1048.316	28.64
1048.737	28.98
1049.157	28.82
1049.578	29.33
1049.998	29.33
1050.419	28.88
1050.839	28.57
1051.259	28.66
1051.68	29.45
1052.1	28.71
1052.52	29.02
1052.94	28.74
1053.361	28.72
1053.781	29.45
1054.201	28.85
1054.621	28.75
1055.041	29.13
1055.461	29.45
1055.881	29.21
1056.301	29.18
1056.721	29.42
1057.141	29.12
1057.561	28.84
1057.981	28.91
1058.401	29.14
1058.82	28.77
1059.24	29.11
1059.66	29.17
1060.08	28.08
1060.499	29.33
1060.919	28.75
1061.339	29.07
1061.758	29.26
1062.178	29.55
1062.598	28.52
1063.017	29.34
1063.437	28.84
1063.856	28.55
1064.276	28.82
1064.695	28.94
1065.114	28.81
1065.534	29.29
1065.953	29.39
1066.372	28.59
1066.792	28.94
1067.211	29.41
1067.63	28.95
1068.049	28.45
1068.469	29.3
1068.888	29
1069.307	28.69
1069.726	29.31
1070.145	29.35
1070.564	30.15
1070.983	29.38
1071.402	29.67
1071.821	29.48
1072.24	28.96
1072.659	29.58
1073.078	29.22
1073.496	29.9
1073.915	28.8
1074.334	29.5
1074.753	29.34
1075.171	29.7
1075.59	29.26
1076.009	29.48
1076.427	29.74
1076.846	29.18
1077.265	29.27
1077.683	29.31
1078.102	29.25
1078.52	29.36
1078.939	29.55
1079.357	29.02
1079.776	29.02
1080.194	29.27
1080.612	29.49
1081.031	28.92
1081.449	29.87
1081.867	28.31
1082.285	29.26
1082.704	28.16
1083.122	28.97
1083.54	28.75
1083.958	29.13
1084.376	29.35
1084.794	28.82
1085.212	30
1085.63	29.36
1086.048	28.83
1086.466	30.09
1086.884	28.96
1087.302	28.99
1087.72	29.5
1088.138	29.07
1088.555	29.28
1088.973	29.69
1089.391	29.44
1089.809	28.85
1090.226	28.89
1090.644	29.25
1091.062	29.66
1091.479	29.35
1091.897	29.14
1092.314	29.23
1092.732	30.12
1093.15	30.29
1093.567	28.91
1093.984	28.28
1094.402	29.42
1094.819	29.15
1095.237	28.29
1095.654	29.08
1096.071	29.66
1096.488	28.78
1096.906	30.85
1097.323	30.07
1097.74	30.06
1098.157	29.52
1098.574	30.79
1098.991	29.3
1099.409	28.51
1099.826	29.34
1100.243	29.55
1100.66	28.74
1101.077	28.79
1101.494	30.27
1101.91	29.25
1102.327	28.58
1102.744	29.27
1103.161	29.87
1103.578	28.85
1103.994	29.24
1104.411	29.84
1104.828	30.31
1105.245	29.58
1105.661	28.74
1106.078	28.18
1106.494	28.66
1106.911	27.83
1107.328	28.02
1107.744	30.57
1108.161	28.54
1108.577	27.97
1108.993	26.62
1109.41	28.34
1109.826	28.47
1110.242	29.99
1110.659	29.51
1111.075	29.15
1111.491	26.98
1111.908	28.19
1112.324	30.36
1112.74	22.75
1113.156	27.4
1113.572	27.47
1113.988	29.1
1114.404	27.8
1114.82	27.08
1115.236	27.14
1115.652	25.83
1116.068	27.54
1116.484	29.65
1116.9	28.66
1117.316	27.27
1117.732	-8.97
1118.147	-47.22
1118.563	29.17
1118.979	416.67
