Data from JCR0018_PreoccularBrown_Reflection_00002.txt Node
Date: Thu Jul 23 16:36:29 ACST 2020
User: Stacey Dix
Spectrometer: MAYP113282
Scans to average: 1
Trigger mode: 0
Integration Time (sec): 1.000000E-1
Electric dark correction enabled: true
Boxcar width: 0
XAxis mode: Wavelengths
Number of Pixels in Spectrum: 2068
>>>>>Begin Spectral Data<<<<<
198.791	-391.67
199.266	216.67
199.74	58.33
200.215	0
200.69	11.19
201.164	1.64
201.639	-11.9
202.114	8.18
202.588	25.99
203.063	23.45
203.537	1.06
204.012	11.25
204.486	9.26
204.961	26.19
205.435	3.04
205.909	12.23
206.384	5.39
206.858	4.83
207.332	11.94
207.807	22.83
208.281	26.99
208.755	5.31
209.229	-5.12
209.703	29.52
210.177	-12.47
210.651	11.31
211.126	14.2
211.6	13.93
212.074	13.63
212.548	13.43
213.021	17.76
213.495	21.39
213.969	5.34
214.443	3.46
214.917	8.77
215.391	13.63
215.864	1.26
216.338	15.01
216.812	7.57
217.286	6.11
217.759	20.15
218.233	14.88
218.706	6.32
219.18	5.35
219.654	0.07
220.127	6.63
220.6	4.26
221.074	12.82
221.547	7.07
222.021	5.38
222.494	2
222.967	7.64
223.441	-2.47
223.914	8.79
224.387	4.52
224.86	10.11
225.334	1.57
225.807	4.26
226.28	4.91
226.753	4.47
227.226	5.03
227.699	4.87
228.172	2.19
228.645	3.63
229.118	4.28
229.591	3.11
230.064	-0.21
230.537	4.16
231.01	4.85
231.482	2.77
231.955	7.34
232.428	2.31
232.901	0.7
233.373	2.96
233.846	0.7
234.319	4.19
234.791	1.54
235.264	3.03
235.736	2.08
236.209	1.84
236.681	2.46
237.154	1.65
237.626	2.18
238.099	2.56
238.571	3.06
239.044	2.67
239.516	2.35
239.988	1.54
240.46	2.9
240.933	0.38
241.405	1.86
241.877	1.67
242.349	1.28
242.821	2.9
243.293	2.54
243.765	2.45
244.237	1.64
244.71	1.99
245.181	1.61
245.653	2.23
246.125	3.17
246.597	1.36
247.069	2.86
247.541	1.74
248.013	2.4
248.485	2.81
248.956	2.47
249.428	1.81
249.9	1.73
250.371	2.79
250.843	1.39
251.315	1.26
251.786	2.42
252.258	0.8
252.729	2.12
253.201	1.91
253.672	1.92
254.144	1.44
254.615	1.25
255.086	1.03
255.558	1.24
256.029	1.09
256.5	1.37
256.972	0.98
257.443	1.51
257.914	1.88
258.385	1.89
258.856	1.75
259.327	1.54
259.799	1.09
260.27	1.27
260.741	1.64
261.212	1.13
261.683	1.12
262.154	1.21
262.624	1.2
263.095	1.43
263.566	1.41
264.037	0.97
264.508	0.47
264.979	1.57
265.449	2.09
265.92	1.34
266.391	1.46
266.861	1.48
267.332	1.47
267.803	0.78
268.273	1.8
268.744	1.67
269.214	0.48
269.685	1.48
270.155	1.46
270.626	2.43
271.096	1.45
271.566	0.91
272.037	1.28
272.507	2.09
272.977	0.7
273.448	1.02
273.918	1.84
274.388	1.38
274.858	0.56
275.328	1.81
275.798	1.06
276.268	1.26
276.738	1.53
277.208	0.79
277.678	1.05
278.148	1.18
278.618	0.7
279.088	1.16
279.558	1.6
280.028	0.84
280.498	1.09
280.968	1.11
281.437	0.86
281.907	1.15
282.377	0.64
282.847	1.14
283.316	1.76
283.786	0.49
284.255	0.18
284.725	0.77
285.194	1.33
285.664	1.15
286.133	0.86
286.603	1.18
287.072	1.74
287.542	1.24
288.011	1.11
288.48	0.18
288.95	1.61
289.419	2.34
289.888	0.87
290.357	1.16
290.827	0.82
291.296	0.94
291.765	1.43
292.234	1.11
292.703	1.02
293.172	0.74
293.641	1.13
294.11	1.05
294.579	1.18
295.048	1.91
295.517	1.49
295.986	0.77
296.455	1.55
296.923	0.64
297.392	1.14
297.861	0.89
298.33	0.62
298.798	0.5
299.267	1.32
299.736	0.77
300.204	0.22
300.673	0.7
301.141	1.18
301.61	1.55
302.079	1.47
302.547	1.31
303.015	0.95
303.484	1.21
303.952	0.83
304.421	0.75
304.889	1.63
305.357	1.39
305.825	0.82
306.294	1.28
306.762	1.33
307.23	0.67
307.698	1.69
308.166	0.7
308.634	0.48
309.103	0.87
309.571	1.14
310.039	1.33
310.507	1.41
310.975	1.51
311.442	0.97
311.91	0.79
312.378	0.68
312.846	1.2
313.314	1.02
313.782	0.69
314.249	1.59
314.717	1.44
315.185	1.5
315.652	0.92
316.12	1.41
316.588	1.49
317.055	0.6
317.523	1.34
317.99	1.47
318.458	1.02
318.925	1.36
319.393	1.48
319.86	1.1
320.328	1.56
320.795	0.75
321.262	2.24
321.73	0.64
322.197	1.49
322.664	0.85
323.131	1.59
323.598	1.53
324.066	1.63
324.533	0.76
325	1.46
325.467	1.74
325.934	1.38
326.401	1.5
326.868	1.71
327.335	2.16
327.802	2.16
328.269	1.68
328.735	2.28
329.202	1.58
329.669	2.77
330.136	2.14
330.603	2.6
331.069	2.89
331.536	3.54
332.003	2.71
332.469	3.02
332.936	3.25
333.402	2.51
333.869	3.5
334.336	3.21
334.802	2.83
335.268	3.27
335.735	3.26
336.201	2.59
336.668	3.59
337.134	4.02
337.6	3.11
338.067	3.92
338.533	3.39
338.999	3.5
339.465	3.3
339.931	3.92
340.398	3.68
340.864	4.07
341.33	3.23
341.796	3.49
342.262	3.4
342.728	2.84
343.194	3.77
343.66	3.69
344.126	3.74
344.592	3.12
345.057	3.8
345.523	4.15
345.989	2.97
346.455	2.94
346.921	4.06
347.386	4.22
347.852	2.5
348.318	3.41
348.783	3.29
349.249	3.07
349.714	3.31
350.18	3.9
350.645	2.83
351.111	4.06
351.576	3.66
352.042	4.03
352.507	3.46
352.973	3.24
353.438	3.56
353.903	3.19
354.369	3.36
354.834	3.48
355.299	3.6
355.764	3.31
356.229	2.83
356.695	3.61
357.16	3.82
357.625	3.52
358.09	3.11
358.555	4.48
359.02	3.71
359.485	4.05
359.95	3.77
360.415	3.34
360.879	3.94
361.344	3.25
361.809	3.46
362.274	3.89
362.739	3.19
363.203	3.78
363.668	3.47
364.133	3.86
364.597	3.95
365.062	2.98
365.527	3.69
365.991	4.6
366.456	4.18
366.92	3.27
367.385	3.42
367.849	2.91
368.314	2.72
368.778	3.01
369.242	3.5
369.707	3.14
370.171	3.58
370.635	3.45
371.1	4.2
371.564	3.56
372.028	3.51
372.492	3.79
372.956	3.35
373.42	3.25
373.884	3.71
374.348	3.57
374.812	2.94
375.276	4.22
375.74	3.26
376.204	4.05
376.668	2.97
377.132	3.23
377.596	3.06
378.06	3.67
378.524	3.42
378.987	2.97
379.451	3.46
379.915	3.54
380.378	3.89
380.842	3.48
381.306	3.64
381.769	3.52
382.233	4.1
382.696	3.48
383.16	3.07
383.623	4
384.087	3.24
384.55	4.2
385.014	4.08
385.477	3.32
385.94	3.84
386.404	4.4
386.867	3.19
387.33	3.73
387.793	4.32
388.256	3.63
388.72	4.31
389.183	3.89
389.646	4.76
390.109	3.15
390.572	3.82
391.035	3.64
391.498	4.24
391.961	3.5
392.424	4.63
392.887	3.9
393.35	3.96
393.812	3.99
394.275	3.9
394.738	4.4
395.201	4.12
395.664	3.9
396.126	3.82
396.589	3.5
397.052	3.85
397.514	3.72
397.977	4.02
398.439	4.56
398.902	3.8
399.364	3.72
399.827	4.12
400.289	4.43
400.752	3.44
401.214	3.77
401.676	3.82
402.139	4.01
402.601	4.17
403.063	4.42
403.525	3.33
403.988	3.76
404.45	3.68
404.912	3.82
405.374	3.74
405.836	3.89
406.298	4.08
406.76	4.11
407.222	4.18
407.684	3.32
408.146	4.04
408.608	4
409.07	4.15
409.532	3.64
409.994	4.33
410.456	4.29
410.917	4.3
411.379	4.2
411.841	3.28
412.303	3.88
412.764	3.57
413.226	4.19
413.687	3.78
414.149	3.81
414.611	3.34
415.072	3.76
415.534	4.2
415.995	3.74
416.457	3.35
416.918	3.33
417.379	3.35
417.841	4.23
418.302	4.54
418.763	3.66
419.225	4.28
419.686	3.68
420.147	3.4
420.608	3.46
421.069	3.77
421.53	3.46
421.991	4.28
422.453	3.8
422.914	3.91
423.375	3.24
423.836	3.91
424.297	3.54
424.757	3.75
425.218	3.84
425.679	3.63
426.14	4.47
426.601	3.65
427.062	4.16
427.522	4.31
427.983	3.28
428.444	4.87
428.904	3.94
429.365	2.8
429.826	3.96
430.286	3.81
430.747	4.09
431.207	4.33
431.668	4.6
432.128	5.14
432.589	3.58
433.049	3.68
433.509	5.19
433.97	3.69
434.43	4.45
434.89	5.13
435.351	4.68
435.811	4.66
436.271	4.45
436.731	5.15
437.191	4.48
437.651	4.35
438.112	4.7
438.572	2.37
439.032	3.56
439.492	5.59
439.952	5.01
440.412	5.62
440.871	4.46
441.331	4.61
441.791	4.35
442.251	5.75
442.711	4.65
443.171	4.94
443.63	4.38
444.09	3.55
444.55	4.28
445.009	5.29
445.469	4.48
445.929	4.79
446.388	4.99
446.848	4.2
447.307	4.87
447.767	4.25
448.226	4.1
448.686	4.53
449.145	4.47
449.604	4.86
450.064	4.48
450.523	4.75
450.982	5.38
451.442	4.52
451.901	4.46
452.36	5.36
452.819	4.75
453.278	5.73
453.737	4.88
454.197	4.81
454.656	4.52
455.115	3.98
455.574	4.39
456.033	5.1
456.492	6.04
456.95	4.66
457.409	4.95
457.868	4.89
458.327	4.97
458.786	4.03
459.245	4.73
459.703	4.51
460.162	4.91
460.621	4.55
461.079	4.28
461.538	4.19
461.997	5.51
462.455	4.78
462.914	4.93
463.372	4.83
463.831	4.93
464.289	3.95
464.748	4.43
465.206	4.45
465.664	5.02
466.123	5.48
466.581	4.26
467.039	4.36
467.497	3.91
467.956	4.39
468.414	4.47
468.872	5.53
469.33	4.74
469.788	4.2
470.246	4.51
470.704	5.96
471.162	4.77
471.62	6.01
472.078	4.77
472.536	5.6
472.994	4.97
473.452	4.8
473.91	5.37
474.368	4.54
474.826	4.13
475.283	3.92
475.741	4.01
476.199	5.05
476.656	3.83
477.114	4.96
477.572	4.31
478.029	4.3
478.487	5.26
478.944	4.69
479.402	4.12
479.859	4.8
480.317	3.99
480.774	5.54
481.232	4.54
481.689	4.94
482.146	6.73
482.604	3.65
483.061	4.72
483.518	6
483.975	6.58
484.433	4.21
484.89	6.51
485.347	5.94
485.804	5.29
486.261	2.23
486.718	5.65
487.175	4.61
487.632	5.51
488.089	3.99
488.546	5.52
489.003	5.72
489.46	4.59
489.917	5.59
490.373	5.95
490.83	3.68
491.287	5.11
491.744	5.5
492.2	4.74
492.657	6.02
493.114	5.01
493.57	4.73
494.027	5.36
494.484	5.32
494.94	5.13
495.397	6.69
495.853	5.95
496.31	5.92
496.766	6.13
497.222	6.06
497.679	4.84
498.135	4.84
498.591	4.88
499.048	5.09
499.504	4.63
499.96	6.03
500.416	6.16
500.872	6.36
501.329	6.05
501.785	5.22
502.241	5.81
502.697	5.45
503.153	4.79
503.609	6
504.065	5.58
504.521	5.62
504.977	5.8
505.432	5.52
505.888	7.44
506.344	5.5
506.8	6.29
507.256	6.8
507.711	5.9
508.167	6.16
508.623	5.98
509.078	6.05
509.534	5.97
509.99	5.87
510.445	5.59
510.901	5.23
511.356	6.73
511.812	6.67
512.267	5.65
512.722	6.37
513.178	5.81
513.633	6.66
514.089	6.94
514.544	5.97
514.999	6.09
515.454	6.14
515.91	7.25
516.365	5.92
516.82	7.05
517.275	6.73
517.73	7.17
518.185	6.47
518.64	6.71
519.095	6.64
519.55	6.09
520.005	7.4
520.46	7.35
520.915	5.64
521.37	7.36
521.825	7.34
522.28	6.62
522.734	7.25
523.189	7.57
523.644	6.38
524.099	7.98
524.553	7.01
525.008	6.55
525.462	8.17
525.917	7
526.372	6.7
526.826	7.44
527.281	6.41
527.735	6.81
528.19	6.64
528.644	7.08
529.098	7.47
529.553	8.01
530.007	7.4
530.461	6.56
530.916	7.22
531.37	7.76
531.824	7.35
532.278	6.59
532.732	6.83
533.186	6.71
533.641	7.45
534.095	5.94
534.549	7.45
535.003	6.84
535.457	7.11
535.911	7.11
536.365	6.9
536.818	6.71
537.272	6.76
537.726	7.39
538.18	7.67
538.634	6.95
539.087	7.4
539.541	6.81
539.995	7.55
540.449	8.12
540.902	8.19
541.356	7.15
541.809	6.2
542.263	6.36
542.716	7.28
543.17	7.55
543.623	7.12
544.077	7.71
544.53	6.36
544.984	8.09
545.437	6.97
545.89	6.69
546.344	7.41
546.797	6.27
547.25	6.81
547.703	7.01
548.157	7.21
548.61	6.87
549.063	8.26
549.516	7.15
549.969	7.01
550.422	7.63
550.875	7.61
551.328	7.04
551.781	6.58
552.234	7.28
552.687	7.27
553.14	7.27
553.592	7.18
554.045	8.45
554.498	6.67
554.951	7.86
555.404	8.15
555.856	7.3
556.309	7.86
556.762	6.62
557.214	8.55
557.667	7.77
558.119	7.37
558.572	8.41
559.024	8.19
559.477	7.57
559.929	8.3
560.382	7.29
560.834	7.95
561.286	7.68
561.739	7.9
562.191	8.15
562.643	7.79
563.095	9.07
563.548	7.71
564	8.86
564.452	8.81
564.904	7.84
565.356	8.46
565.808	8.31
566.26	8.25
566.712	8.33
567.164	8.51
567.616	8.49
568.068	7.41
568.52	8.64
568.972	8.94
569.424	7.8
569.876	8.6
570.327	7.37
570.779	8.94
571.231	7.88
571.682	8.59
572.134	8.25
572.586	8.93
573.037	8.56
573.489	8.98
573.941	8.44
574.392	9.27
574.844	8.48
575.295	7.96
575.746	7.92
576.198	8.24
576.649	9.04
577.101	8.18
577.552	8.49
578.003	8.63
578.454	8.41
578.906	8.25
579.357	8.21
579.808	8.67
580.259	8.23
580.71	8.45
581.161	8.59
581.612	8.71
582.064	8.15
582.515	8.74
582.965	9.13
583.416	9.44
583.867	9.17
584.318	9.38
584.769	8.5
585.22	9.24
585.671	9
586.122	8.32
586.572	8.49
587.023	8.27
587.474	8.55
587.924	7.98
588.375	8.62
588.826	8.22
589.276	8.71
589.727	9.1
590.177	9.07
590.628	8.86
591.078	9.16
591.529	9.02
591.979	9.39
592.429	9.18
592.88	9.08
593.33	8.86
593.78	9.26
594.231	9.4
594.681	8.85
595.131	8.77
595.581	9.14
596.031	8.71
596.481	9.06
596.932	8.31
597.382	9.29
597.832	9.81
598.282	8.4
598.732	9.07
599.182	9.26
599.632	9.13
600.081	8.96
600.531	8.76
600.981	9.29
601.431	9.58
601.881	9.37
602.33	8.72
602.78	9.28
603.23	9.37
603.679	9.37
604.129	8.96
604.579	9.59
605.028	9.04
605.478	8.92
605.927	9.11
606.377	10.04
606.826	9.41
607.276	9.25
607.725	9.65
608.175	10.25
608.624	9
609.073	9.75
609.522	8.88
609.972	10.52
610.421	8.99
610.87	9.29
611.319	9.06
611.768	9.6
612.218	9.66
612.667	9.43
613.116	9.61
613.565	9.74
614.014	9.5
614.463	9.37
614.912	9.31
615.361	10.06
615.81	9.64
616.258	9.78
616.707	10.01
617.156	9.88
617.605	9.2
618.054	9.73
618.502	10.28
618.951	9.68
619.4	9.38
619.848	9.54
620.297	9.79
620.745	9.14
621.194	10.04
621.642	10.19
622.091	9.99
622.539	9.76
622.988	9.66
623.436	9.79
623.885	9.86
624.333	9.98
624.781	10.35
625.23	9.77
625.678	9.66
626.126	9.95
626.574	9.76
627.022	9.96
627.471	9.72
627.919	9.39
628.367	9.94
628.815	10.17
629.263	10.86
629.711	10.47
630.159	10.19
630.607	10.08
631.055	10.85
631.503	10.66
631.95	10.73
632.398	9.63
632.846	10.66
633.294	10.33
633.742	10.29
634.189	10.13
634.637	10.63
635.085	10.73
635.532	10.41
635.98	9.84
636.427	10.37
636.875	10.52
637.323	10.31
637.77	10.6
638.217	10.44
638.665	10.78
639.112	10.97
639.56	10.3
640.007	10.54
640.454	10.24
640.902	10.36
641.349	10.58
641.796	9.75
642.243	10.43
642.69	11.34
643.138	10.19
643.585	11.13
644.032	10.6
644.479	10.03
644.926	10.66
645.373	10.38
645.82	10.62
646.267	10.47
646.714	10.44
647.161	10.66
647.607	11.72
648.054	10.31
648.501	11.07
648.948	10.65
649.395	10.73
649.841	10.51
650.288	10.89
650.735	11.2
651.181	11.03
651.628	11
652.075	10.88
652.521	10.71
652.968	11.02
653.414	11.02
653.861	11.22
654.307	11.1
654.753	11.24
655.2	10.69
655.646	10.91
656.092	11.31
656.539	11.28
656.985	10.97
657.431	10.86
657.877	11.35
658.324	11.26
658.77	10.7
659.216	10.79
659.662	11.44
660.108	11.87
660.554	11.4
661	11.58
661.446	11.2
661.892	11.88
662.338	10.68
662.784	11.88
663.23	11.03
663.675	11.44
664.121	11.13
664.567	11.48
665.013	11.48
665.458	11.09
665.904	11.19
666.35	11.07
666.795	11.43
667.241	11.69
667.687	11.7
668.132	11.69
668.578	12.19
669.023	11.2
669.469	11.09
669.914	11.71
670.359	11.19
670.805	11.3
671.25	11.79
671.695	11.68
672.141	11.4
672.586	11.87
673.031	11.69
673.476	11.73
673.922	11.83
674.367	11.59
674.812	11.87
675.257	11.44
675.702	11.9
676.147	11.15
676.592	11.88
677.037	11.65
677.482	11.85
677.927	12.34
678.372	11.85
678.817	11.78
679.261	11.85
679.706	12.26
680.151	11.7
680.596	11.81
681.04	12.36
681.485	12.07
681.93	11.74
682.374	12.39
682.819	11.86
683.264	11.72
683.708	12.32
684.153	12.05
684.597	11.78
685.042	12.35
685.486	12.27
685.93	12.07
686.375	11.75
686.819	12.09
687.263	12.51
687.708	12.34
688.152	11.88
688.596	12.47
689.04	12.16
689.485	12.18
689.929	12.15
690.373	12.44
690.817	12.74
691.261	11.86
691.705	12.13
692.149	12.23
692.593	12.48
693.037	12.36
693.481	12.74
693.925	12.48
694.369	12.82
694.812	12.51
695.256	12.25
695.7	12.69
696.144	12.31
696.587	12.34
697.031	12.6
697.475	12.18
697.918	12.36
698.362	12.84
698.806	12.91
699.249	12.97
699.693	12.37
700.136	12.55
700.58	12.57
701.023	12.72
701.466	12.61
701.91	12.76
702.353	12.62
702.796	13.36
703.24	12.58
703.683	12.82
704.126	13.16
704.569	12.91
705.013	13.28
705.456	12.74
705.899	12.93
706.342	12.96
706.785	12.64
707.228	12.73
707.671	13.01
708.114	13.36
708.557	12.82
709	13.02
709.443	12.75
709.886	13.12
710.328	13
710.771	13.22
711.214	13.45
711.657	12.58
712.099	12.78
712.542	12.96
712.985	12.69
713.427	12.55
713.87	12.88
714.313	13.14
714.755	13.27
715.198	13.6
715.64	13.24
716.083	13.28
716.525	13.03
716.967	13.44
717.41	13.47
717.852	13.48
718.295	13.62
718.737	13.2
719.179	13.19
719.621	13.55
720.063	13.48
720.506	13.53
720.948	13.28
721.39	12.99
721.832	13.67
722.274	13.41
722.716	14.04
723.158	13.81
723.6	13.33
724.042	13.52
724.484	13.46
724.926	13.62
725.368	13.62
725.81	13.36
726.251	13.5
726.693	13.75
727.135	13.53
727.577	13.99
728.018	13.53
728.46	13.16
728.902	13.71
729.343	13.64
729.785	13.75
730.226	13.9
730.668	13.8
731.109	13.78
731.551	13.81
731.992	13.9
732.434	13.9
732.875	14.21
733.316	13.98
733.758	13.26
734.199	14.05
734.64	14.08
735.081	13.84
735.523	13.2
735.964	13.83
736.405	13.93
736.846	14.03
737.287	13.91
737.728	13.88
738.169	14.35
738.61	14.09
739.051	14.27
739.492	14.02
739.933	14.31
740.374	13.91
740.815	14.48
741.256	13.79
741.696	14.28
742.137	14.41
742.578	14.4
743.019	14.47
743.459	14.53
743.9	14.22
744.341	14.55
744.781	14.23
745.222	14.04
745.662	14.53
746.103	14.57
746.543	14.17
746.984	14.19
747.424	14.48
747.865	15.03
748.305	14.38
748.745	13.93
749.186	14.25
749.626	14.46
750.066	14.63
750.506	14.62
750.947	14.73
751.387	14.43
751.827	14.13
752.267	14.87
752.707	14.51
753.147	14.95
753.587	15.12
754.027	14.6
754.467	14.74
754.907	14.76
755.347	14.42
755.787	14.71
756.227	14.63
756.667	14.8
757.107	15.34
757.546	14.35
757.986	15.01
758.426	14.96
758.865	14.53
759.305	14.92
759.745	14.99
760.184	14.86
760.624	15.21
761.063	15.05
761.503	14.95
761.943	14.62
762.382	15.1
762.821	14.97
763.261	15.81
763.7	15.12
764.14	15.4
764.579	15.3
765.018	15.38
765.457	15.34
765.897	15.74
766.336	14.95
766.775	15.66
767.214	15.43
767.653	15.21
768.092	15.27
768.531	15.08
768.97	15.82
769.409	15.68
769.848	15.53
770.287	15.45
770.726	15.52
771.165	15.66
771.604	15.41
772.043	15.55
772.482	15.68
772.92	15.58
773.359	15.49
773.798	15.74
774.237	15.68
774.675	15.67
775.114	16.05
775.553	16.05
775.991	15.81
776.43	16.26
776.868	15.97
777.307	16.13
777.745	16.05
778.184	16.47
778.622	15.96
779.06	15.95
779.499	15.91
779.937	16.33
780.375	15.93
780.814	15.86
781.252	16.08
781.69	15.47
782.128	16.06
782.566	16.21
783.004	16.35
783.443	15.84
783.881	16.14
784.319	16.16
784.757	16.7
785.195	16.51
785.633	16.38
786.071	16.4
786.508	16.12
786.946	16.14
787.384	16.16
787.822	16.66
788.26	16.62
788.697	16.49
789.135	16.47
789.573	16.22
790.011	16.49
790.448	16.55
790.886	16.43
791.323	16.66
791.761	16.24
792.198	16.74
792.636	16.91
793.073	16.92
793.511	16.59
793.948	16.66
794.386	16.94
794.823	16.72
795.26	16.62
795.698	16.59
796.135	16.58
796.572	16.66
797.009	16.82
797.446	16.83
797.884	17.03
798.321	16.88
798.758	17.01
799.195	16.99
799.632	16.92
800.069	17.16
800.506	17
800.943	17.07
801.38	17.27
801.817	17.01
802.254	16.68
802.69	17.04
803.127	16.98
803.564	17.2
804.001	17.16
804.438	17.5
804.874	17.34
805.311	16.96
805.748	17.42
806.184	17.33
806.621	17.38
807.057	17.17
807.494	17.41
807.93	17.45
808.367	17.62
808.803	17.25
809.24	17.19
809.676	17.2
810.112	17.39
810.549	17.78
810.985	17.69
811.421	17.66
811.857	17.55
812.294	17.72
812.73	17.97
813.166	17.61
813.602	17.37
814.038	18.06
814.474	18.1
814.91	17.96
815.346	17.66
815.782	17.6
816.218	17.6
816.654	17.81
817.09	17.84
817.526	17.56
817.962	17.74
818.398	17.72
818.833	18.3
819.269	17.99
819.705	17.96
820.141	18.29
820.576	18.13
821.012	18.34
821.447	17.99
821.883	17.94
822.319	18.28
822.754	18.03
823.19	18.19
823.625	17.98
824.061	18.4
824.496	18.39
824.931	18.24
825.367	18.14
825.802	18.71
826.237	18.27
826.673	18.5
827.108	18.35
827.543	18.68
827.978	18.38
828.413	18.1
828.849	18.57
829.284	18.62
829.719	18.49
830.154	18.66
830.589	18.77
831.024	18.58
831.459	18.53
831.894	18.41
832.329	18.5
832.763	18.9
833.198	18.75
833.633	18.67
834.068	18.55
834.503	18.93
834.937	18.62
835.372	18.85
835.807	18.76
836.241	18.71
836.676	18.98
837.111	18.71
837.545	18.79
837.98	19.15
838.414	18.77
838.849	19.27
839.283	19.13
839.717	18.96
840.152	19.49
840.586	19.09
841.021	18.79
841.455	19.25
841.889	19.08
842.323	19.23
842.758	20
843.192	19.45
843.626	19.33
844.06	19.37
844.494	19.27
844.928	18.97
845.362	19.45
845.796	19.21
846.23	19.41
846.664	19.33
847.098	20.06
847.532	19.51
847.966	19.83
848.4	19.46
848.834	19.79
849.267	19.32
849.701	19.94
850.135	19.7
850.569	20
851.002	19.92
851.436	19.69
851.87	19.86
852.303	19.53
852.737	19.86
853.17	19.73
853.604	20.03
854.037	19.94
854.471	19.83
854.904	20.08
855.337	19.7
855.771	20.33
856.204	19.91
856.637	19.9
857.071	20.34
857.504	20.32
857.937	20.21
858.37	20.22
858.804	20.11
859.237	20.36
859.67	20.36
860.103	20.32
860.536	19.9
860.969	20.22
861.402	20.1
861.835	20.39
862.268	20.33
862.701	20.25
863.134	20.26
863.566	20.77
863.999	20.92
864.432	20.32
864.865	20.76
865.298	20.3
865.73	20.56
866.163	21.01
866.596	20.54
867.028	20.88
867.461	20.47
867.893	20.81
868.326	20.68
868.758	20.62
869.191	20.85
869.623	20.89
870.056	20.82
870.488	20.76
870.92	20.93
871.353	20.96
871.785	20.87
872.217	21.09
872.65	20.85
873.082	20.87
873.514	20.97
873.946	20.9
874.378	21.01
874.81	20.57
875.243	20.91
875.675	21.29
876.107	21.04
876.539	21.06
876.971	21.43
877.403	21.37
877.834	21.36
878.266	21.45
878.698	21.05
879.13	21.02
879.562	21.08
879.994	21.14
880.425	21.62
880.857	21.74
881.289	21.63
881.72	21.73
882.152	21.64
882.584	21.75
883.015	21.8
883.447	21.78
883.878	21.6
884.31	21.46
884.741	21.54
885.173	21.64
885.604	21.97
886.035	21.77
886.467	21.88
886.898	21.74
887.329	21.79
887.76	21.99
888.192	21.86
888.623	21.76
889.054	22.18
889.485	21.87
889.916	21.74
890.347	21.81
890.778	22.27
891.209	22.12
891.64	21.79
892.071	22.15
892.502	22.05
892.933	22.15
893.364	22.26
893.795	22.37
894.226	22.55
894.657	22.12
895.087	22.27
895.518	22.35
895.949	22.64
896.38	22.23
896.81	22.84
897.241	22.37
897.671	22.5
898.102	22.69
898.533	22.87
898.963	22.56
899.394	22.45
899.824	22.96
900.254	22.55
900.685	22.77
901.115	22.78
901.546	22.71
901.976	22.78
902.406	22.9
902.836	22.86
903.267	22.44
903.697	22.68
904.127	22.7
904.557	22.93
904.987	22.79
905.417	22.42
905.847	22.61
906.277	23.11
906.707	22.9
907.137	23.15
907.567	23.02
907.997	22.97
908.427	22.94
908.857	23.4
909.287	23.12
909.717	23.15
910.146	23.27
910.576	23.02
911.006	23.11
911.436	23.17
911.865	23.23
912.295	22.98
912.724	23.31
913.154	23.3
913.584	23.37
914.013	23.97
914.443	23.39
914.872	23.23
915.302	23.5
915.731	23.51
916.16	23.32
916.59	23.26
917.019	23.62
917.448	23.65
917.878	23.83
918.307	23.28
918.736	23.61
919.165	23.52
919.594	23.37
920.023	23.92
920.452	23.48
920.882	23.6
921.311	23.58
921.74	24.06
922.169	23.7
922.597	24.25
923.026	23.59
923.455	23.58
923.884	23.5
924.313	24.05
924.742	23.87
925.171	24.01
925.599	23.89
926.028	23.83
926.457	24.06
926.885	23.93
927.314	24.02
927.743	24.05
928.171	23.96
928.6	24.11
929.028	24.12
929.457	24.4
929.885	24.16
930.314	24.23
930.742	23.98
931.17	24.18
931.599	23.86
932.027	24.49
932.455	24.11
932.884	24.4
933.312	24.6
933.74	24.4
934.168	24.48
934.596	24.82
935.025	24.31
935.453	24.3
935.881	24.27
936.309	24.44
936.737	24.41
937.165	24.34
937.593	24.38
938.021	24.55
938.449	24.14
938.876	24.76
939.304	24.29
939.732	24.34
940.16	24.41
940.588	24.46
941.015	24.86
941.443	24.39
941.871	24.5
942.298	25.02
942.726	24.61
943.154	24.48
943.581	24.76
944.009	24.31
944.436	24.84
944.864	24.87
945.291	24.45
945.718	24.79
946.146	24.53
946.573	25.11
947.001	25.26
947.428	25.05
947.855	24.96
948.282	24.78
948.71	24.5
949.137	24.99
949.564	25.12
949.991	24.58
950.418	25.43
950.845	24.59
951.272	25.27
951.699	24.79
952.126	25.15
952.553	25.07
952.98	25
953.407	24.93
953.834	24.49
954.261	25.13
954.688	25.12
955.114	25.29
955.541	25.41
955.968	25.17
956.395	25.58
956.821	25.16
957.248	25.16
957.674	25.16
958.101	25.07
958.528	25.29
958.954	25.43
959.381	25.48
959.807	25.26
960.234	25.28
960.66	25.54
961.086	25.31
961.513	25.37
961.939	25.57
962.365	25.67
962.792	25.59
963.218	25.73
963.644	25.53
964.07	25.4
964.496	25.42
964.923	25.58
965.349	25.43
965.775	25.84
966.201	25.7
966.627	25.65
967.053	25.66
967.479	25.46
967.905	25.89
968.331	25.62
968.756	25.82
969.182	25.65
969.608	25.97
970.034	25.72
970.46	25.4
970.885	25.93
971.311	25.69
971.737	26.03
972.162	25.77
972.588	25.83
973.014	25.95
973.439	25.93
973.865	26.18
974.29	26.08
974.716	25.68
975.141	26.33
975.567	26.2
975.992	26.26
976.417	26.08
976.843	26.11
977.268	26.14
977.693	25.86
978.119	26.1
978.544	26
978.969	26.5
979.394	26.2
979.819	26.17
980.244	26.03
980.669	26.2
981.095	26.58
981.52	26.37
981.945	26.38
982.369	26.54
982.794	26.3
983.219	26.78
983.644	26.45
984.069	26.32
984.494	26.38
984.919	26.64
985.343	26.63
985.768	26.51
986.193	26.47
986.618	26.66
987.042	26.64
987.467	26.61
987.891	26.77
988.316	26.89
988.741	26.72
989.165	26.71
989.59	26.81
990.014	26.73
990.438	26.88
990.863	26.86
991.287	27.01
991.712	26.96
992.136	26.98
992.56	27.18
992.984	26.77
993.409	26.86
993.833	26.9
994.257	26.92
994.681	26.9
995.105	26.85
995.529	27
995.953	26.88
996.377	26.8
996.801	26.77
997.225	26.94
997.649	26.92
998.073	27.03
998.497	27
998.921	26.95
999.345	27.03
999.769	27.05
1000.192	27.16
1000.616	27.24
1001.04	26.81
1001.464	27.22
1001.887	27.11
1002.311	27.22
1002.734	27.24
1003.158	27.47
1003.582	27.44
1004.005	27.47
1004.429	27.41
1004.852	27.5
1005.275	27.45
1005.699	27.44
1006.122	27.4
1006.546	27.02
1006.969	27.38
1007.392	26.8
1007.815	27.61
1008.239	27.56
1008.662	27.69
1009.085	27.36
1009.508	27.32
1009.931	27.3
1010.354	27.93
1010.778	27.55
1011.201	27.66
1011.624	27.36
1012.047	27.34
1012.469	27.59
1012.892	27.69
1013.315	27.52
1013.738	28.03
1014.161	27.59
1014.584	27.66
1015.007	27.35
1015.429	27.6
1015.852	27.97
1016.275	27.59
1016.697	27.91
1017.12	27.91
1017.543	28.01
1017.965	27.95
1018.388	27.86
1018.81	27.78
1019.233	28.07
1019.655	27.83
1020.078	28.16
1020.5	28.12
1020.922	28.07
1021.345	27.85
1021.767	27.84
1022.189	28.14
1022.612	28.23
1023.034	27.84
1023.456	27.93
1023.878	27.93
1024.301	27.94
1024.723	27.79
1025.145	28.49
1025.567	28.14
1025.989	28.19
1026.411	28.12
1026.833	28.48
1027.255	28.1
1027.677	28.2
1028.099	28.09
1028.52	28.34
1028.942	28.13
1029.364	27.83
1029.786	28.59
1030.208	28.53
1030.629	28.41
1031.051	28.69
1031.473	28.19
1031.894	28.18
1032.316	28.42
1032.738	28.47
1033.159	28.27
1033.581	28.78
1034.002	28.15
1034.424	28.5
1034.845	28.58
1035.267	28.66
1035.688	28.12
1036.109	28.58
1036.531	27.98
1036.952	28.74
1037.373	28.44
1037.794	28.55
1038.216	28.37
1038.637	28.49
1039.058	28.91
1039.479	28.37
1039.9	28.79
1040.321	28.68
1040.742	28.76
1041.163	28.8
1041.584	28.5
1042.005	29.02
1042.426	28.76
1042.847	28.1
1043.268	28.65
1043.689	28.65
1044.11	29.24
1044.53	28.53
1044.951	28.85
1045.372	29.03
1045.793	28.48
1046.213	28.49
1046.634	28.83
1047.055	28.41
1047.475	29.19
1047.896	28.78
1048.316	29.42
1048.737	29.25
1049.157	28.54
1049.578	28.52
1049.998	28.91
1050.419	28.96
1050.839	28.9
1051.259	28.65
1051.68	29.07
1052.1	29.58
1052.52	28.83
1052.94	28.83
1053.361	28.63
1053.781	28.6
1054.201	28.67
1054.621	28.89
1055.041	28.62
1055.461	29.48
1055.881	28.88
1056.301	29.61
1056.721	28.91
1057.141	29.63
1057.561	28.89
1057.981	29.03
1058.401	29.11
1058.82	29.47
1059.24	29.38
1059.66	29.01
1060.08	29.2
1060.499	28.64
1060.919	29.5
1061.339	29.11
1061.758	29.39
1062.178	28.87
1062.598	29.01
1063.017	29.51
1063.437	29.56
1063.856	29.5
1064.276	29.04
1064.695	29.07
1065.114	28.88
1065.534	28.9
1065.953	29.11
1066.372	28.73
1066.792	28.38
1067.211	30.08
1067.63	29.42
1068.049	29
1068.469	29.89
1068.888	29.66
1069.307	29.52
1069.726	29.15
1070.145	29.73
1070.564	29.37
1070.983	29.51
1071.402	30.05
1071.821	29.71
1072.24	29.49
1072.659	29.31
1073.078	29.57
1073.496	29.96
1073.915	30.26
1074.334	29.31
1074.753	29.33
1075.171	30.1
1075.59	29.36
1076.009	29.48
1076.427	29.63
1076.846	28.8
1077.265	29.5
1077.683	28.5
1078.102	29.97
1078.52	29.84
1078.939	29.62
1079.357	29.28
1079.776	29.04
1080.194	29.76
1080.612	29.11
1081.031	29.13
1081.449	29.77
1081.867	27.3
1082.285	29.8
1082.704	29.53
1083.122	29.26
1083.54	28.75
1083.958	29.43
1084.376	29.06
1084.794	29.45
1085.212	29.24
1085.63	29.6
1086.048	29.89
1086.466	29.61
1086.884	29.74
1087.302	29.2
1087.72	29.65
1088.138	30.89
1088.555	29.05
1088.973	30.21
1089.391	30.62
1089.809	29.44
1090.226	29.13
1090.644	28.99
1091.062	29.48
1091.479	29.04
1091.897	29.43
1092.314	29.35
1092.732	29.01
1093.15	29.66
1093.567	28.91
1093.984	29.91
1094.402	30.37
1094.819	30.6
1095.237	30.04
1095.654	29.68
1096.071	28.63
1096.488	30.11
1096.906	29.42
1097.323	28.78
1097.74	29.18
1098.157	28.8
1098.574	28.37
1098.991	30.1
1099.409	28.72
1099.826	29.43
1100.243	30.39
1100.66	28.93
1101.077	28.39
1101.494	28.48
1101.91	30.27
1102.327	29.98
1102.744	29.56
1103.161	28.3
1103.578	28
1103.994	29.24
1104.411	29.68
1104.828	29.77
1105.245	29.21
1105.661	26.97
1106.078	31.13
1106.494	30.17
1106.911	28.15
1107.328	28.49
1107.744	28.45
1108.161	29.64
1108.577	26.62
1108.993	27.63
1109.41	29.49
1109.826	29.14
1110.242	28.84
1110.659	30.24
1111.075	31.04
1111.491	28.89
1111.908	28.53
1112.324	30.29
1112.74	24.01
1113.156	29.21
1113.572	29.05
1113.988	28.28
1114.404	26.33
1114.82	27.27
1115.236	28.72
1115.652	28.4
1116.068	27.21
1116.484	27.06
1116.9	29.38
1117.316	29.78
1117.732	21.79
1118.147	19.44
1118.563	129.17
1118.979	-183.33
