Data from JCR0018_SupralabialWhite_Reflection_00002.txt Node
Date: Thu Jul 23 16:35:15 ACST 2020
User: Stacey Dix
Spectrometer: MAYP113282
Scans to average: 1
Trigger mode: 0
Integration Time (sec): 1.000000E-1
Electric dark correction enabled: true
Boxcar width: 0
XAxis mode: Wavelengths
Number of Pixels in Spectrum: 2068
>>>>>Begin Spectral Data<<<<<
198.791	-650
199.266	100
199.74	-50
200.215	0
200.69	9.59
201.164	2.82
201.639	-10.99
202.114	25
202.588	-1.08
203.063	-1.16
203.537	7.27
204.012	23.93
204.486	-3.03
204.961	12.61
205.435	-2.88
205.909	14.52
206.384	-0.75
206.858	-7.48
207.332	11.02
207.807	4.2
208.281	30.6
208.755	9.63
209.229	3.51
209.703	9.15
210.177	11.11
210.651	-4.9
211.126	10.37
211.6	3.29
212.074	10.81
212.548	12.12
213.021	12.42
213.495	14.18
213.969	3.92
214.443	6.74
214.917	13.29
215.391	7.81
215.864	0
216.338	-1.1
216.812	9.17
217.286	-7.54
217.759	15.48
218.233	8.64
218.706	4.46
219.18	10.98
219.654	9.79
220.127	6.93
220.6	3.44
221.074	2.41
221.547	10.23
222.021	2.82
222.494	-0.97
222.967	8.38
223.441	-3.91
223.914	8.75
224.387	5.97
224.86	6.18
225.334	0
225.807	2.96
226.28	4.16
226.753	0
227.226	2.42
227.699	4.39
228.172	2.01
228.645	5.42
229.118	4.01
229.591	2.6
230.064	1.87
230.537	0.47
231.01	2.73
231.482	2.65
231.955	1.13
232.428	1.68
232.901	0
233.373	1.15
233.846	1.99
234.319	2.88
234.791	0.73
235.264	1.34
235.736	0.58
236.209	0.38
236.681	1.55
237.154	1.88
237.626	1.83
238.099	1.14
238.571	2.47
239.044	2.41
239.516	1.51
239.988	0.67
240.46	2.44
240.933	0.89
241.405	1.8
241.877	0.9
242.349	1.59
242.821	2.07
243.293	2.44
243.765	1.61
244.237	1.86
244.71	0.99
245.181	0.38
245.653	1.64
246.125	2.02
246.597	1.16
247.069	0.98
247.541	2.46
248.013	1.73
248.485	0.64
248.956	1.66
249.428	0.46
249.9	1.68
250.371	1.21
250.843	1.24
251.315	0.63
251.786	1.98
252.258	0.48
252.729	0.86
253.201	1.36
253.672	1.21
254.144	1.13
254.615	1.38
255.086	0.81
255.558	0.68
256.029	0.39
256.5	1.18
256.972	0.92
257.443	0.69
257.914	1.23
258.385	1.07
258.856	1.51
259.327	0.93
259.799	0.76
260.27	1.32
260.741	0.69
261.212	1.1
261.683	0.4
262.154	0.79
262.624	1.01
263.095	0.69
263.566	1.61
264.037	0.83
264.508	0.39
264.979	1.04
265.449	0.89
265.92	1.1
266.391	0.53
266.861	1.13
267.332	0.41
267.803	1.14
268.273	1.12
268.744	0.32
269.214	0.75
269.685	0.53
270.155	0.74
270.626	1.1
271.096	1.32
271.566	0.91
272.037	1.48
272.507	0.71
272.977	0.07
273.448	0.51
273.918	1.1
274.388	1.38
274.858	0.41
275.328	0.85
275.798	0.83
276.268	0.33
276.738	0.04
277.208	0.34
277.678	0.62
278.148	1.06
278.618	-0.42
279.088	0.97
279.558	0.67
280.028	0.54
280.498	0.84
280.968	0.52
281.437	0.82
281.907	0.67
282.377	0.35
282.847	0.21
283.316	0.82
283.786	0.27
284.255	0.38
284.725	0.79
285.194	1.18
285.664	1.06
286.133	0.59
286.603	0.66
287.072	0.72
287.542	1.43
288.011	0.51
288.48	-0.03
288.95	1.13
289.419	0.88
289.888	0.69
290.357	0.76
290.827	0.45
291.296	0.82
291.765	0.48
292.234	0.82
292.703	0.62
293.172	0.59
293.641	0.84
294.11	0.46
294.579	0.53
295.048	1.23
295.517	0.76
295.986	0.5
296.455	0.8
296.923	0.51
297.392	0.25
297.861	0.12
298.33	0.31
298.798	1.03
299.267	0.82
299.736	1.22
300.204	0.06
300.673	0.5
301.141	0.74
301.61	0.86
302.079	0.5
302.547	1.76
303.015	0.8
303.484	0.78
303.952	1.01
304.421	0.71
304.889	1.69
305.357	0.9
305.825	1.07
306.294	0.65
306.762	1.58
307.23	0.82
307.698	1.62
308.166	0.67
308.634	1.53
309.103	1.42
309.571	0.88
310.039	1.63
310.507	1.25
310.975	0.86
311.442	1.45
311.91	1.13
312.378	1.59
312.846	1.48
313.314	1.8
313.782	1.08
314.249	1.61
314.717	1.55
315.185	1.38
315.652	1.75
316.12	1.61
316.588	1.69
317.055	1.48
317.523	1.4
317.99	1.4
318.458	1.74
318.925	1.27
319.393	1.23
319.86	1.98
320.328	2.15
320.795	1.08
321.262	2.11
321.73	1.91
322.197	1.79
322.664	1.37
323.131	1.19
323.598	2.02
324.066	2.27
324.533	1.58
325	1.97
325.467	3.28
325.934	2.83
326.401	2.43
326.868	2.47
327.335	3.23
327.802	3.99
328.269	3.32
328.735	3.92
329.202	4.94
329.669	4.4
330.136	4.93
330.603	5.05
331.069	5.17
331.536	6.31
332.003	5.08
332.469	6.07
332.936	6.58
333.402	6.68
333.869	7.07
334.336	6.15
334.802	6.73
335.268	6.65
335.735	7.36
336.201	7.52
336.668	7.86
337.134	7.48
337.6	6.75
338.067	7.09
338.533	7.92
338.999	7.85
339.465	7.43
339.931	7.35
340.398	7.91
340.864	7.77
341.33	8.02
341.796	8.06
342.262	7.84
342.728	7.45
343.194	7.4
343.66	8.18
344.126	8.24
344.592	7.59
345.057	8.26
345.523	7.55
345.989	8.04
346.455	7.58
346.921	8.98
347.386	8.31
347.852	8.59
348.318	8.45
348.783	7.94
349.249	8.22
349.714	8.32
350.18	8.05
350.645	6.73
351.111	8.43
351.576	8.85
352.042	8.07
352.507	7.58
352.973	7.41
353.438	6.91
353.903	8.42
354.369	8.06
354.834	9.09
355.299	8.89
355.764	7.59
356.229	8.47
356.695	8.15
357.16	8.65
357.625	8.04
358.09	8.66
358.555	8.92
359.02	7.68
359.485	8.04
359.95	9.04
360.415	8.03
360.879	8.52
361.344	7.54
361.809	8.11
362.274	8.23
362.739	7.83
363.203	8.56
363.668	8.44
364.133	8.4
364.597	8.08
365.062	7.71
365.527	7.56
365.991	7.95
366.456	8.47
366.92	7.55
367.385	8.66
367.849	7.86
368.314	7.41
368.778	7.7
369.242	7.02
369.707	8.42
370.171	8.27
370.635	8.16
371.1	8.26
371.564	7.54
372.028	8.39
372.492	8.47
372.956	7.65
373.42	8.44
373.884	8.52
374.348	9.37
374.812	7.95
375.276	8.79
375.74	7.88
376.204	9.15
376.668	8.23
377.132	7.97
377.596	7.88
378.06	7.77
378.524	8.17
378.987	7.4
379.451	7.4
379.915	8.21
380.378	8.54
380.842	8.26
381.306	8.42
381.769	8.17
382.233	8.9
382.696	7.93
383.16	8.19
383.623	7.69
384.087	7.88
384.55	8.77
385.014	8.27
385.477	7.93
385.94	8.51
386.404	7.91
386.867	8.39
387.33	8.47
387.793	7.63
388.256	7.69
388.72	8.79
389.183	7.3
389.646	7.94
390.109	7.55
390.572	7.68
391.035	8.03
391.498	7.94
391.961	7.44
392.424	7.6
392.887	8.02
393.35	7.86
393.812	7.76
394.275	7.39
394.738	7.01
395.201	7.94
395.664	7.59
396.126	7.13
396.589	7.54
397.052	6.92
397.514	6.71
397.977	7.14
398.439	7.23
398.902	7.23
399.364	6.37
399.827	7
400.289	7.06
400.752	6.85
401.214	7.26
401.676	7.2
402.139	6.19
402.601	6.81
403.063	6.79
403.525	6.37
403.988	6.83
404.45	6.02
404.912	6.62
405.374	6.29
405.836	6.93
406.298	7.17
406.76	6.92
407.222	6.6
407.684	5.28
408.146	6.47
408.608	6.93
409.07	6.41
409.532	5.74
409.994	6.18
410.456	5.97
410.917	6.42
411.379	6.62
411.841	6.28
412.303	6.53
412.764	5.52
413.226	6.7
413.687	6.41
414.149	6.34
414.611	5.88
415.072	5.98
415.534	6.39
415.995	6.08
416.457	6.2
416.918	6.53
417.379	6.29
417.841	6.42
418.302	6.27
418.763	6.67
419.225	7.01
419.686	5.68
420.147	6.72
420.608	6.37
421.069	6.29
421.53	7.22
421.991	6.85
422.453	6.25
422.914	6.89
423.375	7.26
423.836	6.95
424.297	6.91
424.757	6.6
425.218	7.29
425.679	7.26
426.14	7.36
426.601	7.12
427.062	8.01
427.522	7.03
427.983	6.59
428.444	8.95
428.904	7.45
429.365	6.85
429.826	8.16
430.286	8.62
430.747	8.62
431.207	7.71
431.668	8.13
432.128	9.01
432.589	8.08
433.049	6.59
433.509	8.88
433.97	7.45
434.43	8.85
434.89	8.79
435.351	9.35
435.811	9.49
436.271	8.33
436.731	9.06
437.191	9.41
437.651	7.76
438.112	9.3
438.572	6.76
439.032	8.66
439.492	10.33
439.952	9.96
440.412	8.5
440.871	9.63
441.331	9.21
441.791	9.24
442.251	10.71
442.711	9.29
443.171	9.9
443.63	9.35
444.09	9.67
444.55	9.74
445.009	9.69
445.469	9.87
445.929	9.32
446.388	10.96
446.848	9.1
447.307	10.08
447.767	9.47
448.226	9.42
448.686	9.28
449.145	9.79
449.604	9.64
450.064	9.84
450.523	9.68
450.982	9.83
451.442	8.84
451.901	10.44
452.36	9.16
452.819	8.69
453.278	10.02
453.737	9.74
454.197	9.33
454.656	8.86
455.115	9.45
455.574	9.25
456.033	9.87
456.492	10.75
456.95	10.99
457.409	10.05
457.868	10.96
458.327	9.54
458.786	9.52
459.245	10.03
459.703	9.45
460.162	10.49
460.621	10.09
461.079	9.78
461.538	10.12
461.997	10.35
462.455	9.94
462.914	11.46
463.372	11.12
463.831	10.74
464.289	10.06
464.748	10.63
465.206	10.65
465.664	10.58
466.123	10.62
466.581	9.23
467.039	9.59
467.497	10.04
467.956	9.94
468.414	9.69
468.872	10.38
469.33	9.84
469.788	10.96
470.246	9.72
470.704	11.76
471.162	9.12
471.62	10.9
472.078	10.88
472.536	10.89
472.994	10.21
473.452	10.41
473.91	9.69
474.368	11
474.826	11.69
475.283	9.85
475.741	10.26
476.199	10.49
476.656	11.41
477.114	9.75
477.572	11.13
478.029	11.22
478.487	10.94
478.944	10.3
479.402	10.84
479.859	10.82
480.317	10.17
480.774	11.36
481.232	9.34
481.689	9.25
482.146	13.19
482.604	11.24
483.061	10.95
483.518	11.13
483.975	11.09
484.433	9.25
484.89	10.46
485.347	10.3
485.804	11.26
486.261	10.63
486.718	11.94
487.175	11.36
487.632	11.31
488.089	10.34
488.546	12.18
489.003	11.93
489.46	11.85
489.917	11.76
490.373	13.01
490.83	10.51
491.287	11.56
491.744	11.72
492.2	11.35
492.657	12.07
493.114	12.63
493.57	10.55
494.027	13.7
494.484	11.25
494.94	13.14
495.397	12.42
495.853	11.79
496.31	11.88
496.766	12.15
497.222	12.8
497.679	11.6
498.135	12.02
498.591	11.5
499.048	11.18
499.504	10.88
499.96	11.53
500.416	14.67
500.872	13.6
501.329	13.39
501.785	11.55
502.241	12.59
502.697	13.36
503.153	11.92
503.609	11.94
504.065	13.85
504.521	13.18
504.977	12.41
505.432	11.81
505.888	14.31
506.344	12.59
506.8	13.6
507.256	13.13
507.711	13.69
508.167	12.51
508.623	13.83
509.078	13.6
509.534	12.84
509.99	14.43
510.445	12.12
510.901	13.58
511.356	15.43
511.812	15.36
512.267	14.61
512.722	13.96
513.178	14.59
513.633	13.76
514.089	13.94
514.544	14.51
514.999	13.54
515.454	13.54
515.91	15.2
516.365	13.31
516.82	14.01
517.275	14.01
517.73	14.92
518.185	15
518.64	14.99
519.095	14.46
519.55	13.97
520.005	13.67
520.46	14.41
520.915	13.72
521.37	14.43
521.825	14.43
522.28	13.29
522.734	14.01
523.189	14.19
523.644	13.96
524.099	14.38
524.553	14.45
525.008	14.77
525.462	15.19
525.917	14.07
526.372	14.37
526.826	14.68
527.281	12.46
527.735	14.96
528.19	13.88
528.644	13.85
529.098	14.79
529.553	14.62
530.007	14.32
530.461	13.29
530.916	14.9
531.37	14.2
531.824	14.31
532.278	14.64
532.732	13.5
533.186	15.11
533.641	13.41
534.095	14.86
534.549	15.82
535.003	14.43
535.457	14.71
535.911	14.55
536.365	13.75
536.818	14.48
537.272	13.86
537.726	14.33
538.18	14.03
538.634	13.51
539.087	12.5
539.541	14.33
539.995	13.24
540.449	13.96
540.902	14.13
541.356	15.03
541.809	12.94
542.263	13.13
542.716	13.41
543.17	12.95
543.623	13.37
544.077	14.54
544.53	13.05
544.984	14.53
545.437	14.4
545.89	14.54
546.344	14.24
546.797	13.85
547.25	13.99
547.703	13.72
548.157	14.82
548.61	14.05
549.063	16.07
549.516	13.49
549.969	14.45
550.422	15.21
550.875	13.93
551.328	13.86
551.781	13.69
552.234	14.31
552.687	14.12
553.14	15.32
553.592	15.34
554.045	15.08
554.498	15.28
554.951	16.52
555.404	15.03
555.856	14.46
556.309	15.77
556.762	14.26
557.214	16.36
557.667	15.44
558.119	15.58
558.572	14.68
559.024	15.4
559.477	16.68
559.929	15.66
560.382	15.82
560.834	15.44
561.286	14.88
561.739	14.46
562.191	14.98
562.643	15.93
563.095	15.95
563.548	14.79
564	15.88
564.452	15.7
564.904	15.12
565.356	15.95
565.808	15.22
566.26	15.77
566.712	15.14
567.164	15.38
567.616	15.15
568.068	15.81
568.52	15.4
568.972	16
569.424	15.14
569.876	15.42
570.327	14.35
570.779	15.13
571.231	14.73
571.682	15.2
572.134	14.32
572.586	14.66
573.037	14.37
573.489	15.22
573.941	15.41
574.392	14.66
574.844	14.72
575.295	15.28
575.746	15.86
576.198	14.57
576.649	15.25
577.101	15.65
577.552	15.2
578.003	15
578.454	15.08
578.906	15.63
579.357	14.87
579.808	15.04
580.259	14.93
580.71	15.87
581.161	15.98
581.612	15.12
582.064	15.79
582.515	15.12
582.965	16.41
583.416	16.43
583.867	15.45
584.318	15.53
584.769	17.01
585.22	16.59
585.671	15.68
586.122	16.08
586.572	15.87
587.023	17.12
587.474	16.6
587.924	17.47
588.375	17.33
588.826	16.59
589.276	17.83
589.727	16.81
590.177	17.1
590.628	17.49
591.078	16.71
591.529	18.31
591.979	17.75
592.429	18.05
592.88	18.02
593.33	19.14
593.78	18.21
594.231	18.36
594.681	18.01
595.131	17.54
595.581	18.07
596.031	17.95
596.481	17.53
596.932	18.39
597.382	18.42
597.832	18.1
598.282	19.06
598.732	18.64
599.182	18.07
599.632	18.74
600.081	17.87
600.531	18.01
600.981	18.22
601.431	17.32
601.881	18.71
602.33	18.87
602.78	18.39
603.23	18.15
603.679	17.66
604.129	18.28
604.579	18.75
605.028	17.8
605.478	18.07
605.927	18.6
606.377	18.82
606.826	18.76
607.276	18.46
607.725	19
608.175	19.31
608.624	19.18
609.073	19.04
609.522	19.01
609.972	18.39
610.421	19.06
610.87	18.58
611.319	18.51
611.768	18.82
612.218	19.16
612.667	18.66
613.116	19.5
613.565	18.92
614.014	19.1
614.463	19.26
614.912	18.51
615.361	19.55
615.81	19.48
616.258	19.24
616.707	19.82
617.156	19.26
617.605	19.39
618.054	18.84
618.502	19.39
618.951	18.92
619.4	19.38
619.848	18.9
620.297	19.14
620.745	19.1
621.194	19.5
621.642	18.79
622.091	19.11
622.539	18.79
622.988	18.32
623.436	19.78
623.885	19.4
624.333	18.3
624.781	19.83
625.23	19
625.678	18.73
626.126	19.58
626.574	19.52
627.022	18.95
627.471	19.79
627.919	19.69
628.367	18.92
628.815	20.32
629.263	19.14
629.711	18.95
630.159	19.83
630.607	19.52
631.055	19.85
631.503	19.76
631.95	19.96
632.398	19.51
632.846	18.98
633.294	19.38
633.742	19.78
634.189	19.91
634.637	19.95
635.085	19.21
635.532	19.79
635.98	19.94
636.427	19.74
636.875	19.72
637.323	19.79
637.77	19.42
638.217	19.88
638.665	19.21
639.112	20.4
639.56	19.44
640.007	20.52
640.454	19.35
640.902	20
641.349	20.93
641.796	20.46
642.243	19.57
642.69	19.35
643.138	19.88
643.585	20.37
644.032	19.8
644.479	19.26
644.926	19.66
645.373	19.76
645.82	20.46
646.267	20.33
646.714	19.89
647.161	20.2
647.607	20.32
648.054	20.44
648.501	19.46
648.948	20.58
649.395	20.27
649.841	20.09
650.288	20.12
650.735	20.23
651.181	19.76
651.628	20.39
652.075	19.26
652.521	20.1
652.968	20.67
653.414	20.07
653.861	20.39
654.307	21.05
654.753	19.5
655.2	20.92
655.646	20.58
656.092	20.42
656.539	20.97
656.985	19.92
657.431	20.44
657.877	20.28
658.324	20.45
658.77	20.75
659.216	21.03
659.662	20.43
660.108	20.68
660.554	21.1
661	19.99
661.446	20.58
661.892	21.01
662.338	20.33
662.784	21.48
663.23	20.45
663.675	20.26
664.121	20.81
664.567	20.84
665.013	21.15
665.458	21.04
665.904	20.77
666.35	20.1
666.795	21.05
667.241	20.95
667.687	21.1
668.132	21.06
668.578	21.53
669.023	20.57
669.469	20.84
669.914	21.11
670.359	20.34
670.805	21.15
671.25	20.68
671.695	21.13
672.141	20.85
672.586	20.4
673.031	21.79
673.476	21.36
673.922	21.15
674.367	20.49
674.812	21.47
675.257	20.78
675.702	20.62
676.147	20.65
676.592	20.98
677.037	20.85
677.482	20.84
677.927	20.96
678.372	20.95
678.817	21
679.261	20.87
679.706	21.21
680.151	21.26
680.596	21.48
681.04	21.28
681.485	21.41
681.93	20.96
682.374	21.19
682.819	21.51
683.264	21.01
683.708	20.71
684.153	21.47
684.597	20.85
685.042	21.15
685.486	20.65
685.93	21.08
686.375	21.44
686.819	21.56
687.263	20.98
687.708	21.15
688.152	20.87
688.596	21.7
689.04	21.59
689.485	21.11
689.929	21.42
690.373	21.74
690.817	21.37
691.261	21.39
691.705	21.29
692.149	21.51
692.593	21.74
693.037	21.33
693.481	21.4
693.925	21.64
694.369	22.04
694.812	21.36
695.256	21.01
695.7	21.3
696.144	21.9
696.587	21.52
697.031	21.19
697.475	21.47
697.918	21.51
698.362	21.32
698.806	21.69
699.249	21.73
699.693	21.2
700.136	21.59
700.58	21.38
701.023	21.4
701.466	21.39
701.91	21.65
702.353	21.25
702.796	21.45
703.24	21.55
703.683	21.48
704.126	21.2
704.569	22
705.013	21.52
705.456	21.65
705.899	22.07
706.342	21.87
706.785	21.93
707.228	21.57
707.671	21.18
708.114	21.7
708.557	22.44
709	21.57
709.443	21.84
709.886	21.98
710.328	22.02
710.771	22.13
711.214	21.62
711.657	21.71
712.099	21.74
712.542	21.34
712.985	21.88
713.427	21.7
713.87	21.29
714.313	22.03
714.755	21.96
715.198	22.08
715.64	22.19
716.083	21.92
716.525	21.76
716.967	22
717.41	21.55
717.852	21.74
718.295	22.48
718.737	21.68
719.179	22.08
719.621	21.95
720.063	21.6
720.506	22.15
720.948	22.1
721.39	21.91
721.832	21.82
722.274	22.45
722.716	22.52
723.158	21.85
723.6	22.58
724.042	22.19
724.484	22.51
724.926	22.3
725.368	21.85
725.81	21.97
726.251	21.93
726.693	21.64
727.135	22.1
727.577	21.96
728.018	21.64
728.46	21.48
728.902	21.89
729.343	22.44
729.785	22.1
730.226	22.2
730.668	21.71
731.109	22.06
731.551	21.82
731.992	22.3
732.434	22.44
732.875	22.53
733.316	22
733.758	21.63
734.199	21.29
734.64	21.66
735.081	22.02
735.523	22.13
735.964	22.43
736.405	22.22
736.846	22.63
737.287	22.19
737.728	22.08
738.169	21.83
738.61	21.98
739.051	22.16
739.492	22.27
739.933	22.96
740.374	22.27
740.815	22.48
741.256	22.11
741.696	21.95
742.137	22.68
742.578	22.3
743.019	22.01
743.459	22.45
743.9	22.12
744.341	22.42
744.781	21.93
745.222	22.19
745.662	22.23
746.103	22.92
746.543	22.54
746.984	22.41
747.424	22.33
747.865	22.45
748.305	22.19
748.745	22.2
749.186	22.64
749.626	22
750.066	22.06
750.506	22.49
750.947	22.04
751.387	22.44
751.827	22.25
752.267	22.86
752.707	22.2
753.147	21.98
753.587	22.41
754.027	22.05
754.467	22.31
754.907	22.18
755.347	22.33
755.787	22.85
756.227	22.54
756.667	22.47
757.107	22.9
757.546	22.53
757.986	22.39
758.426	22.07
758.865	22.02
759.305	22.21
759.745	22.5
760.184	22.09
760.624	22.81
761.063	22.88
761.503	22.41
761.943	22.3
762.382	22.38
762.821	22.41
763.261	22.59
763.7	22.61
764.14	22.34
764.579	22.65
765.018	22.5
765.457	22.75
765.897	22.38
766.336	22
766.775	22.35
767.214	22.73
767.653	21.95
768.092	22.83
768.531	22.79
768.97	22.35
769.409	22.38
769.848	22.41
770.287	22.02
770.726	22.65
771.165	22.69
771.604	22.61
772.043	22.92
772.482	22.81
772.92	22.98
773.359	22.65
773.798	22.61
774.237	22.55
774.675	22.49
775.114	22.67
775.553	22.47
775.991	22.56
776.43	22.77
776.868	22.61
777.307	23.2
777.745	22.94
778.184	22.84
778.622	23.11
779.06	22.37
779.499	22.49
779.937	22.75
780.375	22.65
780.814	23.35
781.252	22.39
781.69	22.51
782.128	22.72
782.566	22.65
783.004	22.73
783.443	22.63
783.881	22.44
784.319	23.61
784.757	22.92
785.195	22.99
785.633	23.2
786.071	22.81
786.508	22.6
786.946	22.21
787.384	22.47
787.822	23.19
788.26	22.27
788.697	23.09
789.135	22.89
789.573	23.21
790.011	22.87
790.448	22.89
790.886	23.16
791.323	22.3
791.761	22.98
792.198	22.95
792.636	22.97
793.073	22.38
793.511	23.22
793.948	23.1
794.386	23.11
794.823	22.92
795.26	23.39
795.698	22.94
796.135	23.1
796.572	22.62
797.009	23.18
797.446	22.93
797.884	23.05
798.321	22.86
798.758	22.62
799.195	22.73
799.632	23.02
800.069	22.78
800.506	22.89
800.943	23.04
801.38	22.8
801.817	23.22
802.254	22.54
802.69	23.04
803.127	23.35
803.564	22.87
804.001	23.14
804.438	23.43
804.874	23.08
805.311	22.87
805.748	23.21
806.184	23
806.621	23.14
807.057	22.98
807.494	23.05
807.93	22.87
808.367	22.9
808.803	23.16
809.24	23.03
809.676	23.21
810.112	22.68
810.549	23.15
810.985	22.97
811.421	23.11
811.857	22.77
812.294	23.92
812.73	23.32
813.166	23.37
813.602	23.11
814.038	23.38
814.474	22.99
814.91	23.34
815.346	23.3
815.782	23.38
816.218	23.02
816.654	23.63
817.09	22.85
817.526	23.09
817.962	23.02
818.398	23.21
818.833	23.11
819.269	23.1
819.705	23.08
820.141	23.29
820.576	23.4
821.012	23.73
821.447	23.32
821.883	23.14
822.319	23.01
822.754	23.04
823.19	22.9
823.625	22.98
824.061	23.33
824.496	23.56
824.931	23.21
825.367	23.29
825.802	23.19
826.237	23.65
826.673	23.06
827.108	23.4
827.543	23.53
827.978	23.3
828.413	23.37
828.849	22.97
829.284	23.36
829.719	23.24
830.154	23.2
830.589	23.27
831.024	23.57
831.459	23.88
831.894	23.18
832.329	23.36
832.763	23.22
833.198	23.11
833.633	23.55
834.068	23.46
834.503	23.72
834.937	23
835.372	23.26
835.807	23.1
836.241	23.28
836.676	23.57
837.111	23.4
837.545	23.02
837.98	23.42
838.414	23.19
838.849	23.35
839.283	23.49
839.717	23.66
840.152	23.69
840.586	23.41
841.021	23.46
841.455	23.39
841.889	23.35
842.323	23.43
842.758	23.8
843.192	23.17
843.626	23.63
844.06	23.64
844.494	23.77
844.928	23.42
845.362	23.46
845.796	23.38
846.23	23.61
846.664	23.28
847.098	23.6
847.532	23.64
847.966	22.96
848.4	23.32
848.834	23.89
849.267	23.14
849.701	23.81
850.135	23.18
850.569	23.6
851.002	23.43
851.436	23.61
851.87	23.8
852.303	24.06
852.737	23.16
853.17	23.42
853.604	23.51
854.037	23.88
854.471	23.33
854.904	23.18
855.337	23.01
855.771	23.68
856.204	23.42
856.637	23.71
857.071	23.82
857.504	23.57
857.937	23.84
858.37	23.81
858.804	23.59
859.237	24.02
859.67	23.61
860.103	23.9
860.536	23.61
860.969	23.44
861.402	23.66
861.835	23.86
862.268	23.15
862.701	23.76
863.134	23.41
863.566	23.53
863.999	23.51
864.432	23.53
864.865	23.4
865.298	23.64
865.73	23.32
866.163	23.43
866.596	23.66
867.028	23.8
867.461	23.55
867.893	23.65
868.326	23.23
868.758	23.42
869.191	23.39
869.623	23.47
870.056	23.48
870.488	23.54
870.92	23.62
871.353	23.84
871.785	23.61
872.217	23.72
872.65	23.39
873.082	23.83
873.514	23.82
873.946	23.58
874.378	23.3
874.81	23.27
875.243	23.72
875.675	23.77
876.107	23.32
876.539	23.45
876.971	23.63
877.403	23.62
877.834	23.48
878.266	23.43
878.698	23.82
879.13	23.95
879.562	23.5
879.994	23.59
880.425	23.54
880.857	23.62
881.289	23.78
881.72	23.58
882.152	23.63
882.584	23.8
883.015	23.45
883.447	23.78
883.878	23.5
884.31	23.44
884.741	23.57
885.173	23.61
885.604	23.52
886.035	23.7
886.467	23.65
886.898	23.77
887.329	23.74
887.76	23.33
888.192	23.68
888.623	23.75
889.054	23.5
889.485	23.53
889.916	23.59
890.347	23.53
890.778	23.75
891.209	23.79
891.64	23.73
892.071	23.7
892.502	23.85
892.933	24.05
893.364	23.56
893.795	23.76
894.226	23.77
894.657	23.78
895.087	23.64
895.518	23.87
895.949	23.79
896.38	23.59
896.81	23.63
897.241	23.73
897.671	23.78
898.102	23.58
898.533	23.7
898.963	23.82
899.394	23.85
899.824	23.93
900.254	23.7
900.685	24.25
901.115	23.41
901.546	23.69
901.976	23.78
902.406	23.76
902.836	23.99
903.267	23.89
903.697	23.72
904.127	23.89
904.557	23.73
904.987	23.59
905.417	23.48
905.847	23.42
906.277	23.62
906.707	23.48
907.137	23.96
907.567	23.63
907.997	23.91
908.427	23.64
908.857	23.75
909.287	23.81
909.717	23.66
910.146	23.96
910.576	23.63
911.006	23.9
911.436	23.87
911.865	23.63
912.295	23.63
912.724	23.96
913.154	23.72
913.584	23.66
914.013	24
914.443	23.74
914.872	23.76
915.302	23.89
915.731	23.74
916.16	23.65
916.59	23.71
917.019	23.68
917.448	23.7
917.878	23.8
918.307	23.87
918.736	23.7
919.165	23.51
919.594	23.96
920.023	23.99
920.452	23.62
920.882	23.66
921.311	23.83
921.74	23.85
922.169	24.18
922.597	23.71
923.026	24.1
923.455	23.66
923.884	23.73
924.313	23.67
924.742	23.56
925.171	24.03
925.599	23.8
926.028	23.49
926.457	23.65
926.885	23.64
927.314	23.66
927.743	23.62
928.171	24.02
928.6	23.8
929.028	23.6
929.457	24.04
929.885	23.81
930.314	23.81
930.742	24
931.17	23.9
931.599	23.67
932.027	23.95
932.455	23.11
932.884	23.45
933.312	23.66
933.74	23.53
934.168	23.75
934.596	23.76
935.025	23.74
935.453	23.62
935.881	23.62
936.309	23.5
936.737	23.53
937.165	23.68
937.593	23.8
938.021	23.67
938.449	23.16
938.876	23.39
939.304	23.53
939.732	23.77
940.16	23.54
940.588	23.13
941.015	23.36
941.443	23.46
941.871	24.02
942.298	23.75
942.726	23.57
943.154	23.48
943.581	23.27
944.009	23.71
944.436	24.07
944.864	23.59
945.291	23.38
945.718	23.34
946.146	23.03
946.573	23.75
947.001	23.55
947.428	23.58
947.855	23.22
948.282	23.32
948.71	23.08
949.137	24.01
949.564	22.83
949.991	23.17
950.418	23.34
950.845	23.14
951.272	23.41
951.699	23.29
952.126	23.3
952.553	22.82
952.98	23.24
953.407	23.12
953.834	23.21
954.261	23.26
954.688	23.08
955.114	23.36
955.541	23.72
955.968	23.41
956.395	23.14
956.821	23.44
957.248	23.06
957.674	23.45
958.101	23.18
958.528	23.15
958.954	23.38
959.381	23.09
959.807	22.97
960.234	23.28
960.66	23.05
961.086	23.05
961.513	23.27
961.939	23.44
962.365	23.07
962.792	23.43
963.218	23.38
963.644	23.19
964.07	23.4
964.496	23.08
964.923	23.19
965.349	23.14
965.775	23.13
966.201	23.14
966.627	22.98
967.053	22.97
967.479	23.03
967.905	23.18
968.331	23.08
968.756	23.46
969.182	23.42
969.608	23.12
970.034	23.11
970.46	22.99
970.885	23.22
971.311	22.95
971.737	22.99
972.162	23.55
972.588	23.1
973.014	23.08
973.439	23.32
973.865	22.93
974.29	23.2
974.716	23.17
975.141	23.32
975.567	23.24
975.992	22.98
976.417	22.96
976.843	23.1
977.268	22.99
977.693	22.87
978.119	23.19
978.544	23.02
978.969	23
979.394	23.07
979.819	23.03
980.244	23.17
980.669	23.07
981.095	23.2
981.52	23.23
981.945	23.11
982.369	23.24
982.794	23.01
983.219	23.09
983.644	23.19
984.069	23.09
984.494	23.07
984.919	22.99
985.343	23.03
985.768	22.99
986.193	22.91
986.618	23.23
987.042	23.34
987.467	23.13
987.891	23.07
988.316	23.27
988.741	23.05
989.165	23.26
989.59	23.03
990.014	23.31
990.438	22.87
990.863	23.21
991.287	22.92
991.712	22.95
992.136	23.18
992.56	23.21
992.984	23
993.409	23.25
993.833	23.53
994.257	23.18
994.681	23.32
995.105	23.03
995.529	22.97
995.953	23.01
996.377	22.9
996.801	23.38
997.225	23.04
997.649	23
998.073	23.04
998.497	22.95
998.921	23.21
999.345	23.08
999.769	23.11
1000.192	23.39
1000.616	23.11
1001.04	23.36
1001.464	23.1
1001.887	23.18
1002.311	23.34
1002.734	22.97
1003.158	23.18
1003.582	23.34
1004.005	23.19
1004.429	23.17
1004.852	23.34
1005.275	22.91
1005.699	23.31
1006.122	23.4
1006.546	23.21
1006.969	23.3
1007.392	22.85
1007.815	23.2
1008.239	22.82
1008.662	23.08
1009.085	23.24
1009.508	23.15
1009.931	23.2
1010.354	23.33
1010.778	23.08
1011.201	22.86
1011.624	23.06
1012.047	23.04
1012.469	23.28
1012.892	23.24
1013.315	23.31
1013.738	22.94
1014.161	23.09
1014.584	22.76
1015.007	23.12
1015.429	23
1015.852	23.25
1016.275	22.89
1016.697	23.02
1017.12	23.27
1017.543	23.01
1017.965	23.33
1018.388	22.86
1018.81	23.03
1019.233	23.25
1019.655	23.31
1020.078	23.18
1020.5	23.3
1020.922	23.48
1021.345	22.96
1021.767	23.19
1022.189	23.23
1022.612	23.24
1023.034	23.25
1023.456	23.39
1023.878	23.35
1024.301	23.23
1024.723	22.86
1025.145	23.41
1025.567	22.99
1025.989	23.46
1026.411	23.15
1026.833	23.27
1027.255	23.12
1027.677	23.16
1028.099	22.98
1028.52	23.45
1028.942	23.14
1029.364	22.98
1029.786	23.13
1030.208	23.27
1030.629	23.35
1031.051	23.02
1031.473	23.44
1031.894	23.04
1032.316	23.24
1032.738	22.93
1033.159	22.93
1033.581	23.25
1034.002	22.7
1034.424	23.43
1034.845	23.33
1035.267	23.42
1035.688	23.11
1036.109	23.49
1036.531	23.02
1036.952	23.03
1037.373	23.35
1037.794	23.12
1038.216	23.26
1038.637	23.2
1039.058	23.43
1039.479	22.6
1039.9	23.05
1040.321	23.42
1040.742	22.97
1041.163	23.25
1041.584	23.23
1042.005	23.4
1042.426	23.33
1042.847	22.84
1043.268	23.26
1043.689	22.9
1044.11	23.16
1044.53	23.25
1044.951	23.6
1045.372	22.84
1045.793	23.39
1046.213	23.22
1046.634	22.85
1047.055	22.79
1047.475	23.24
1047.896	23.22
1048.316	23.35
1048.737	23.52
1049.157	23.08
1049.578	23.19
1049.998	23.32
1050.419	22.73
1050.839	22.92
1051.259	23.44
1051.68	22.86
1052.1	23.45
1052.52	22.77
1052.94	22.69
1053.361	23.29
1053.781	23.35
1054.201	22.82
1054.621	22.89
1055.041	22.78
1055.461	22.6
1055.881	22.93
1056.301	23.13
1056.721	22.89
1057.141	23.41
1057.561	22.61
1057.981	23.41
1058.401	23.39
1058.82	23.38
1059.24	23.14
1059.66	23
1060.08	22.86
1060.499	23
1060.919	23.42
1061.339	23.25
1061.758	23.27
1062.178	23.33
1062.598	22.64
1063.017	23.18
1063.437	22.85
1063.856	23
1064.276	22.57
1064.695	22.62
1065.114	22.13
1065.534	22.46
1065.953	23.07
1066.372	23.64
1066.792	23.13
1067.211	22.97
1067.63	22.56
1068.049	22.47
1068.469	23.02
1068.888	22.73
1069.307	22.65
1069.726	23.15
1070.145	22.82
1070.564	23.17
1070.983	22.62
1071.402	23.33
1071.821	23.03
1072.24	23.02
1072.659	22.96
1073.078	22.49
1073.496	22.96
1073.915	22.79
1074.334	23.49
1074.753	22.26
1075.171	22.92
1075.59	22.49
1076.009	23.16
1076.427	22.91
1076.846	22.04
1077.265	22.73
1077.683	21.94
1078.102	23.02
1078.52	22.74
1078.939	22.48
1079.357	23.15
1079.776	22.41
1080.194	22.69
1080.612	22.27
1081.031	22.78
1081.449	23.29
1081.867	21.81
1082.285	22.3
1082.704	21.81
1083.122	22.66
1083.54	22.45
1083.958	22.37
1084.376	22.27
1084.794	22.63
1085.212	22.17
1085.63	22.4
1086.048	22.8
1086.466	22.66
1086.884	22.98
1087.302	22.14
1087.72	22.05
1088.138	22.93
1088.555	22.13
1088.973	22.71
1089.391	22.06
1089.809	21.55
1090.226	22.25
1090.644	23.14
1091.062	21.95
1091.479	22.07
1091.897	22.78
1092.314	21.45
1092.732	22.6
1093.15	22.21
1093.567	21.8
1093.984	22.22
1094.402	21.48
1094.819	22.77
1095.237	23.4
1095.654	22.25
1096.071	22.93
1096.488	22.84
1096.906	23.12
1097.323	22.66
1097.74	22.84
1098.157	21.78
1098.574	21.73
1098.991	22.34
1099.409	21.08
1099.826	22.48
1100.243	22.09
1100.66	21.9
1101.077	21.82
1101.494	22.75
1101.91	21.84
1102.327	21.14
1102.744	22.85
1103.161	22.58
1103.578	22.42
1103.994	20.49
1104.411	22.94
1104.828	22.15
1105.245	21.03
1105.661	22.8
1106.078	21.65
1106.494	20.91
1106.911	19.19
1107.328	21.71
1107.744	22.14
1108.161	21.51
1108.577	20.51
1108.993	18.57
1109.41	22.79
1109.826	22.27
1110.242	21.4
1110.659	21.43
1111.075	22.4
1111.491	19.74
1111.908	20.31
1112.324	22.43
1112.74	13.86
1113.156	19.67
1113.572	20.33
1113.988	20.08
1114.404	20.1
1114.82	17.86
1115.236	17.52
1115.652	22.65
1116.068	21.02
1116.484	21.11
1116.9	22.08
1117.316	19.31
1117.732	-0
1118.147	116.67
1118.563	-50
1118.979	0
