Data from JCR0033_White2_Reflection_00001.txt Node
Date: Fri Jul 31 14:59:05 ACST 2020
User: Stacey Dix
Spectrometer: MAYP113282
Scans to average: 1
Trigger mode: 0
Integration Time (sec): 1.000000E-1
Electric dark correction enabled: true
Boxcar width: 0
XAxis mode: Wavelengths
Number of Pixels in Spectrum: 2068
>>>>>Begin Spectral Data<<<<<
198.791	0
199.266	44.44
199.74	-33.33
200.215	33.33
200.69	40.25
201.164	-3.14
201.639	27.11
202.114	21.14
202.588	21.14
203.063	54.31
203.537	10.96
204.012	36.44
204.486	31.6
204.961	20.72
205.435	25.3
205.909	21.68
206.384	38.63
206.858	28.07
207.332	-3.03
207.807	30.53
208.281	8.76
208.755	26.57
209.229	18.94
209.703	8.56
210.177	17.54
210.651	9.72
211.126	26.17
211.6	25.06
212.074	24.56
212.548	24.04
213.021	19.05
213.495	26.19
213.969	22.94
214.443	29.12
214.917	21.34
215.391	24.61
215.864	15.4
216.338	13.7
216.812	17.81
217.286	19.97
217.759	25.4
218.233	13.19
218.706	13.77
219.18	15.55
219.654	20.13
220.127	12.21
220.6	15.72
221.074	12.39
221.547	16.72
222.021	21.78
222.494	10.66
222.967	15.32
223.441	9.66
223.914	13.53
224.387	8.56
224.86	7.57
225.334	9.62
225.807	13.56
226.28	14.61
226.753	7.92
227.226	10.79
227.699	9.61
228.172	15.09
228.645	13.13
229.118	11.98
229.591	6.17
230.064	9.45
230.537	8.26
231.01	8.01
231.482	7.71
231.955	11.97
232.428	11.01
232.901	7.38
233.373	8.54
233.846	7.92
234.319	8.58
234.791	7.25
235.264	8.41
235.736	8
236.209	9.85
236.681	6.87
237.154	8.47
237.626	8.72
238.099	8.55
238.571	8.25
239.044	8.02
239.516	7.59
239.988	8.15
240.46	9.08
240.933	7.64
241.405	8.65
241.877	8.05
242.349	7.17
242.821	8.39
243.293	7.65
243.765	8.17
244.237	7.44
244.71	7.7
245.181	7.39
245.653	8.46
246.125	6.79
246.597	7.91
247.069	8.7
247.541	8.02
248.013	8.24
248.485	7.75
248.956	7.92
249.428	8.09
249.9	6.91
250.371	7.48
250.843	8.39
251.315	6.43
251.786	7.21
252.258	7.21
252.729	7.02
253.201	7.36
253.672	6.18
254.144	6.47
254.615	6.82
255.086	6.95
255.558	7.08
256.029	7.34
256.5	6.2
256.972	6.36
257.443	6.38
257.914	6.99
258.385	7.3
258.856	6.8
259.327	6.43
259.799	6.68
260.27	6.52
260.741	6.32
261.212	6.68
261.683	7.22
262.154	7.5
262.624	7.42
263.095	6.07
263.566	6.51
264.037	6.43
264.508	6.39
264.979	6.86
265.449	6.76
265.92	6.86
266.391	6.25
266.861	6.7
267.332	6.43
267.803	6.51
268.273	6.93
268.744	6.38
269.214	6.35
269.685	6.5
270.155	6.58
270.626	6.21
271.096	6.28
271.566	6.57
272.037	6.26
272.507	7
272.977	7.22
273.448	6.82
273.918	6.36
274.388	6.39
274.858	6.4
275.328	6.41
275.798	6.17
276.268	6.88
276.738	5.99
277.208	7.06
277.678	6.34
278.148	7.05
278.618	6.37
279.088	6.71
279.558	5.73
280.028	6.91
280.498	6.43
280.968	6.42
281.437	6.74
281.907	6.4
282.377	5.93
282.847	6.58
283.316	4.98
283.786	6.57
284.255	5.82
284.725	6.18
285.194	6.17
285.664	7.12
286.133	6.73
286.603	6.12
287.072	6.47
287.542	6.43
288.011	6.23
288.48	6.62
288.95	6.35
289.419	5.82
289.888	6.09
290.357	6.37
290.827	6.17
291.296	5.91
291.765	6.59
292.234	6.62
292.703	5.87
293.172	6.28
293.641	5.56
294.11	5.96
294.579	6
295.048	6
295.517	6.37
295.986	6.12
296.455	7.09
296.923	6.37
297.392	6.35
297.861	6.76
298.33	6.57
298.798	6.03
299.267	6.42
299.736	5.92
300.204	6.48
300.673	5.9
301.141	6.82
301.61	6.8
302.079	6.83
302.547	6.81
303.015	6.72
303.484	6.11
303.952	6.38
304.421	6.69
304.889	6.72
305.357	6.57
305.825	6.07
306.294	5.65
306.762	5.52
307.23	6.12
307.698	5.91
308.166	6.35
308.634	6.34
309.103	6.5
309.571	5.95
310.039	7.01
310.507	5.57
310.975	6.3
311.442	6.68
311.91	5.41
312.378	6.05
312.846	5.8
313.314	6.72
313.782	6.48
314.249	6.71
314.717	6.53
315.185	6.52
315.652	6.47
316.12	6.42
316.588	6.2
317.055	6.8
317.523	6.67
317.99	6.33
318.458	6.89
318.925	6.57
319.393	6.8
319.86	6.77
320.328	7.36
320.795	7.33
321.262	8.15
321.73	7.97
322.197	7.92
322.664	8.73
323.131	9.31
323.598	9.93
324.066	9.56
324.533	10.29
325	11.05
325.467	11.6
325.934	11.35
326.401	12.83
326.868	13.32
327.335	14.48
327.802	14.75
328.269	15.14
328.735	17.7
329.202	17.11
329.669	18.74
330.136	18.65
330.603	20.61
331.069	21.02
331.536	21.55
332.003	23.22
332.469	22.51
332.936	24.02
333.402	23.27
333.869	24.7
334.336	24.33
334.802	23.82
335.268	24.08
335.735	23.68
336.201	24.75
336.668	25.04
337.134	25.22
337.6	24.6
338.067	24.28
338.533	26.12
338.999	24.77
339.465	24.96
339.931	24.73
340.398	26.1
340.864	24.99
341.33	25.1
341.796	26.49
342.262	25.32
342.728	25.03
343.194	26.4
343.66	24.74
344.126	24.83
344.592	25.94
345.057	25.47
345.523	26.22
345.989	24.7
346.455	25.44
346.921	25.87
347.386	24.41
347.852	26.58
348.318	25.28
348.783	25.76
349.249	24.08
349.714	24.85
350.18	25.57
350.645	24.45
351.111	23.82
351.576	24.11
352.042	24.83
352.507	23.13
352.973	24.65
353.438	24.11
353.903	23.9
354.369	24.46
354.834	23.45
355.299	24.28
355.764	22.95
356.229	24.96
356.695	24.18
357.16	22.8
357.625	22.93
358.09	24.58
358.555	24.91
359.02	23.85
359.485	23.86
359.95	24.61
360.415	23.8
360.879	22.99
361.344	23.29
361.809	24.58
362.274	23.86
362.739	23.94
363.203	24.04
363.668	24.55
364.133	22.71
364.597	24.52
365.062	25.1
365.527	24.94
365.991	23.72
366.456	23.29
366.92	24.15
367.385	23.92
367.849	23.82
368.314	25.02
368.778	24.14
369.242	23.11
369.707	22.83
370.171	22.03
370.635	24.21
371.1	24.96
371.564	23.46
372.028	24.64
372.492	23.99
372.956	25.38
373.42	23.92
373.884	23.51
374.348	23.28
374.812	24.29
375.276	22.95
375.74	23.41
376.204	23.79
376.668	22.32
377.132	23
377.596	24.16
378.06	23.56
378.524	22.55
378.987	23.25
379.451	23.35
379.915	23.14
380.378	23.67
380.842	23.71
381.306	23.33
381.769	24.17
382.233	24.16
382.696	23.78
383.16	23.17
383.623	23.89
384.087	24.8
384.55	24.41
385.014	23.92
385.477	23.64
385.94	23.44
386.404	22.97
386.867	23.63
387.33	21.99
387.793	23.86
388.256	23.08
388.72	22.84
389.183	22.73
389.646	23.31
390.109	23.03
390.572	23.81
391.035	22.62
391.498	23.63
391.961	22.88
392.424	22.59
392.887	22.95
393.35	22.98
393.812	22.98
394.275	22.67
394.738	22.65
395.201	23.44
395.664	23.22
396.126	21.89
396.589	22.19
397.052	22.86
397.514	22.97
397.977	21.04
398.439	22.98
398.902	21.93
399.364	22.23
399.827	22.26
400.289	22.07
400.752	22.03
401.214	22.08
401.676	22.77
402.139	22.69
402.601	20.95
403.063	21.08
403.525	23.1
403.988	22.57
404.45	22.64
404.912	22.33
405.374	21.52
405.836	20.6
406.298	22.6
406.76	22.14
407.222	21.38
407.684	20.98
408.146	20.36
408.608	21.24
409.07	21.75
409.532	20.81
409.994	22.35
410.456	20.25
410.917	20.46
411.379	21.33
411.841	20.09
412.303	22.4
412.764	21.08
413.226	21.09
413.687	20.74
414.149	21.68
414.611	21.24
415.072	19.98
415.534	21.22
415.995	21.73
416.457	22.55
416.918	23.09
417.379	22.04
417.841	22
418.302	22.65
418.763	22.71
419.225	22.97
419.686	22.7
420.147	22.58
420.608	22.61
421.069	23.7
421.53	22.63
421.991	23.88
422.453	22.65
422.914	23.52
423.375	22.35
423.836	23.66
424.297	22.96
424.757	23.48
425.218	24.88
425.679	24.65
426.14	24.1
426.601	23.25
427.062	23.11
427.522	25.19
427.983	24.62
428.444	23.05
428.904	23.07
429.365	24.62
429.826	24.51
430.286	22.56
430.747	24.63
431.207	25.55
431.668	24.32
432.128	23.22
432.589	26.34
433.049	25.39
433.509	23.8
433.97	26.46
434.43	24.88
434.89	25.21
435.351	23.56
435.811	25.08
436.271	24.39
436.731	24.32
437.191	24.89
437.651	25.54
438.112	26.18
438.572	25.33
439.032	26.62
439.492	26.43
439.952	23.63
440.412	25.82
440.871	23.99
441.331	25.94
441.791	26.68
442.251	26.24
442.711	26.42
443.171	27.03
443.63	24.6
444.09	28.41
444.55	25.69
445.009	26.64
445.469	24.34
445.929	26.36
446.388	27.22
446.848	27.22
447.307	25.56
447.767	26.61
448.226	25.66
448.686	26.08
449.145	26.47
449.604	25.9
450.064	25.57
450.523	27.77
450.982	27.23
451.442	25.68
451.901	25.75
452.36	25.97
452.819	26.07
453.278	27.09
453.737	26.21
454.197	25.32
454.656	26.86
455.115	26.25
455.574	25.92
456.033	25.4
456.492	26.19
456.95	26.51
457.409	26.47
457.868	27.39
458.327	26.19
458.786	26.63
459.245	26
459.703	27.36
460.162	26.8
460.621	26.32
461.079	24.79
461.538	25.62
461.997	26.5
462.455	26.49
462.914	26.62
463.372	24.98
463.831	28.27
464.289	26.84
464.748	26.58
465.206	26.21
465.664	25.44
466.123	29.48
466.581	23.76
467.039	25.76
467.497	26.88
467.956	26.3
468.414	25.91
468.872	25.16
469.33	25.25
469.788	26.18
470.246	28.57
470.704	26.1
471.162	26.32
471.62	27.51
472.078	25.47
472.536	27.91
472.994	26.36
473.452	24.81
473.91	25.21
474.368	25.78
474.826	25.31
475.283	26.39
475.741	25.41
476.199	24.97
476.656	26.18
477.114	26.24
477.572	27.62
478.029	25.32
478.487	26.98
478.944	25.79
479.402	25.72
479.859	26.02
480.317	27.04
480.774	25.1
481.232	27.49
481.689	26.62
482.146	25.61
482.604	26.89
483.061	25.4
483.518	25.69
483.975	26.21
484.433	26.11
484.89	25.22
485.347	26.3
485.804	25.71
486.261	26.16
486.718	23.15
487.175	25.17
487.632	26.99
488.089	23.37
488.546	24.69
489.003	24.29
489.46	26.03
489.917	26.14
490.373	27.26
490.83	24.74
491.287	24.79
491.744	25.69
492.2	27.41
492.657	24.42
493.114	24.07
493.57	29.08
494.027	23.89
494.484	26.9
494.94	26.9
495.397	26.1
495.853	27.8
496.31	24.3
496.766	26.42
497.222	26.17
497.679	25.6
498.135	26.08
498.591	25.79
499.048	24.22
499.504	24.53
499.96	27.73
500.416	25.5
500.872	24.02
501.329	25.61
501.785	24.17
502.241	27.04
502.697	26.39
503.153	24.58
503.609	25.43
504.065	25.64
504.521	26.2
504.977	25.2
505.432	26.22
505.888	25.57
506.344	25.94
506.8	25.85
507.256	25.17
507.711	24.84
508.167	24.78
508.623	24.73
509.078	24.25
509.534	25.3
509.99	24.91
510.445	25.48
510.901	25.63
511.356	26.39
511.812	25.38
512.267	26.78
512.722	25.75
513.178	26.39
513.633	26.37
514.089	25.32
514.544	26.45
514.999	26.2
515.454	25.2
515.91	25.75
516.365	26.89
516.82	25.29
517.275	24.96
517.73	24.71
518.185	25.33
518.64	25.18
519.095	24.94
519.55	24.03
520.005	25.87
520.46	24.42
520.915	26.46
521.37	26.31
521.825	25.5
522.28	25.61
522.734	25.66
523.189	24.48
523.644	25.86
524.099	25.61
524.553	25.58
525.008	24.34
525.462	26.85
525.917	25.03
526.372	25.82
526.826	23.49
527.281	27.48
527.735	26.1
528.19	25.74
528.644	27.48
529.098	24.75
529.553	25.62
530.007	24.71
530.461	25.35
530.916	26.43
531.37	25.95
531.824	24.77
532.278	25.29
532.732	26.77
533.186	25.59
533.641	26.68
534.095	26.44
534.549	28.77
535.003	26.2
535.457	26.66
535.911	26.5
536.365	25.29
536.818	26.35
537.272	26.5
537.726	26.26
538.18	26.04
538.634	25.51
539.087	26.13
539.541	26.39
539.995	25.24
540.449	23.08
540.902	26.73
541.356	24.38
541.809	25.94
542.263	26.62
542.716	27.77
543.17	24.04
543.623	24.11
544.077	25.48
544.53	27.07
544.984	25.36
545.437	24.98
545.89	25.29
546.344	26.27
546.797	27.68
547.25	26.08
547.703	26.13
548.157	26.48
548.61	25.72
549.063	27.13
549.516	26.08
549.969	25.52
550.422	27.66
550.875	25.76
551.328	24.89
551.781	25.92
552.234	24.82
552.687	26.17
553.14	26.07
553.592	25.87
554.045	26.91
554.498	26.3
554.951	25.67
555.404	25.69
555.856	25.58
556.309	26.6
556.762	26.66
557.214	26.28
557.667	25.51
558.119	26.18
558.572	26.67
559.024	26.36
559.477	26.95
559.929	25.31
560.382	26.44
560.834	25.42
561.286	27.26
561.739	25.71
562.191	27.74
562.643	26.68
563.095	27.02
563.548	26.6
564	26.84
564.452	25.94
564.904	25.55
565.356	27.03
565.808	25.44
566.26	27.26
566.712	27.67
567.164	27.3
567.616	25.68
568.068	25.94
568.52	25.43
568.972	25.56
569.424	27.11
569.876	26.38
570.327	27.14
570.779	25.73
571.231	25.5
571.682	26.91
572.134	26.68
572.586	25.75
573.037	26.78
573.489	26.56
573.941	27.15
574.392	26.46
574.844	26.76
575.295	26.93
575.746	26.52
576.198	26.98
576.649	26.12
577.101	27.38
577.552	26.06
578.003	27.79
578.454	26.44
578.906	27.84
579.357	26.7
579.808	27.63
580.259	27.41
580.71	25.94
581.161	26.59
581.612	27.52
582.064	26.64
582.515	26.56
582.965	27.24
583.416	26.51
583.867	26.37
584.318	26.92
584.769	27.58
585.22	25.6
585.671	27.42
586.122	26.32
586.572	26.54
587.023	26.86
587.474	26.3
587.924	26.86
588.375	27.58
588.826	26.92
589.276	27.11
589.727	26.46
590.177	25.6
590.628	26.66
591.078	27.13
591.529	27.05
591.979	26.13
592.429	25.98
592.88	26.25
593.33	26.32
593.78	26.72
594.231	27.18
594.681	27.48
595.131	26.36
595.581	26.76
596.031	26.37
596.481	27.11
596.932	26.28
597.382	27.17
597.832	26.09
598.282	26.54
598.732	27.44
599.182	26.95
599.632	26.16
600.081	27.51
600.531	26.22
600.981	26.28
601.431	26.02
601.881	26.68
602.33	27.31
602.78	26.67
603.23	26.11
603.679	26.67
604.129	26.64
604.579	26.64
605.028	27.09
605.478	26.5
605.927	26.6
606.377	27.12
606.826	26.38
607.276	27.28
607.725	27.48
608.175	26.93
608.624	25.97
609.073	26.81
609.522	26.13
609.972	26.41
610.421	26.9
610.87	25.98
611.319	27.36
611.768	26.44
612.218	26.77
612.667	26.61
613.116	27.09
613.565	26.66
614.014	26.84
614.463	27.76
614.912	25.95
615.361	26.31
615.81	26.82
616.258	26.78
616.707	26.93
617.156	26.12
617.605	27.09
618.054	25.62
618.502	26.05
618.951	26.8
619.4	26.57
619.848	26.45
620.297	26.38
620.745	27.37
621.194	26.82
621.642	27.11
622.091	27.19
622.539	27.55
622.988	25.81
623.436	25.28
623.885	27.03
624.333	26.67
624.781	26.6
625.23	27.55
625.678	26.85
626.126	26.45
626.574	26.85
627.022	25.58
627.471	25.93
627.919	26.55
628.367	26.32
628.815	25.99
629.263	26.6
629.711	26.35
630.159	25.77
630.607	27.05
631.055	26.15
631.503	27.58
631.95	26.56
632.398	27.05
632.846	26.39
633.294	27.22
633.742	26.9
634.189	25.65
634.637	26.43
635.085	26.75
635.532	26.76
635.98	27.31
636.427	26.06
636.875	27.85
637.323	26.33
637.77	26.26
638.217	26.53
638.665	25.24
639.112	26.48
639.56	26.12
640.007	26.77
640.454	26.7
640.902	26.81
641.349	26.78
641.796	26.8
642.243	26.57
642.69	26.06
643.138	25.92
643.585	27.24
644.032	27.34
644.479	26.54
644.926	26.27
645.373	26.8
645.82	26.35
646.267	26.77
646.714	27.2
647.161	25.17
647.607	25.52
648.054	26.69
648.501	28.1
648.948	26.42
649.395	26.61
649.841	26.86
650.288	27.43
650.735	27.01
651.181	26.53
651.628	26.33
652.075	26.04
652.521	25.99
652.968	27.4
653.414	26.91
653.861	26.34
654.307	25.99
654.753	26.06
655.2	26.97
655.646	25.87
656.092	26.87
656.539	26.78
656.985	26.59
657.431	26.53
657.877	26.13
658.324	26.34
658.77	26.64
659.216	26.69
659.662	25.79
660.108	26.55
660.554	26.75
661	26.68
661.446	26.1
661.892	26.37
662.338	26.85
662.784	27.67
663.23	26.45
663.675	26.73
664.121	26.54
664.567	26.55
665.013	26.99
665.458	26.79
665.904	26.72
666.35	26.24
666.795	26.57
667.241	26.77
667.687	26.93
668.132	26.2
668.578	26.66
669.023	27.57
669.469	26.64
669.914	26.59
670.359	26.49
670.805	26.71
671.25	27.08
671.695	26.21
672.141	26.51
672.586	27.02
673.031	26.34
673.476	26.54
673.922	26.57
674.367	26.55
674.812	26.85
675.257	26.88
675.702	26.66
676.147	27.28
676.592	26.98
677.037	26.78
677.482	26.49
677.927	26.62
678.372	26.23
678.817	26.31
679.261	26.61
679.706	26.88
680.151	25.97
680.596	26.5
681.04	26.07
681.485	27.37
681.93	26.66
682.374	26.81
682.819	27.11
683.264	26.8
683.708	26.74
684.153	27.24
684.597	25.85
685.042	26.7
685.486	25.88
685.93	26.66
686.375	26.24
686.819	26.39
687.263	26.59
687.708	26.99
688.152	27.14
688.596	26.7
689.04	26.24
689.485	26.87
689.929	26.56
690.373	27.21
690.817	27.24
691.261	27.23
691.705	26.29
692.149	26.31
692.593	26.58
693.037	26.39
693.481	26.44
693.925	26.59
694.369	27.18
694.812	26.71
695.256	26.62
695.7	26.92
696.144	27.14
696.587	26.3
697.031	26.75
697.475	26.5
697.918	26.56
698.362	26.54
698.806	27.15
699.249	27.12
699.693	26.63
700.136	27.24
700.58	26.7
701.023	26.84
701.466	26.57
701.91	27.69
702.353	27.33
702.796	26.33
703.24	26.92
703.683	26.87
704.126	26.93
704.569	26.37
705.013	26.96
705.456	26.76
705.899	26.83
706.342	26.97
706.785	26.54
707.228	27.4
707.671	26.8
708.114	27.26
708.557	27.22
709	27.07
709.443	26.84
709.886	26.3
710.328	27.16
710.771	27.53
711.214	26.47
711.657	27.24
712.099	26.34
712.542	26.74
712.985	27
713.427	27.28
713.87	27.1
714.313	27
714.755	26.77
715.198	26.6
715.64	26.53
716.083	26.94
716.525	26.79
716.967	25.55
717.41	26.67
717.852	27.07
718.295	27.16
718.737	27.52
719.179	26.82
719.621	27.13
720.063	26.44
720.506	26.02
720.948	27.77
721.39	26.18
721.832	26.77
722.274	27.43
722.716	27.27
723.158	26.68
723.6	26.68
724.042	27.09
724.484	27.07
724.926	27.57
725.368	26.86
725.81	27.03
726.251	26.64
726.693	26.76
727.135	27.12
727.577	27.02
728.018	26.87
728.46	26.14
728.902	27.26
729.343	27.7
729.785	27.27
730.226	27.15
730.668	26.43
731.109	26.85
731.551	26.45
731.992	26.89
732.434	26.53
732.875	26.49
733.316	27.41
733.758	26.6
734.199	26.74
734.64	27.52
735.081	27.01
735.523	27.47
735.964	26.49
736.405	26.16
736.846	26.78
737.287	26.29
737.728	26.75
738.169	26.76
738.61	26.69
739.051	27.16
739.492	26.64
739.933	27.38
740.374	27.3
740.815	27.11
741.256	27.12
741.696	27.14
742.137	26.02
742.578	27.61
743.019	27.17
743.459	26.59
743.9	26.68
744.341	26.79
744.781	27.12
745.222	26.51
745.662	27.07
746.103	27.23
746.543	27.01
746.984	27.46
747.424	26.57
747.865	27.48
748.305	26.39
748.745	27.36
749.186	27.1
749.626	27.02
750.066	26.56
750.506	27.12
750.947	26.77
751.387	26.63
751.827	26.94
752.267	26.16
752.707	26.79
753.147	26.81
753.587	27.27
754.027	26.57
754.467	26.8
754.907	26.89
755.347	26.88
755.787	27.26
756.227	26.89
756.667	27.13
757.107	26.82
757.546	26.63
757.986	26.1
758.426	27.31
758.865	26.52
759.305	26.93
759.745	26.89
760.184	26.91
760.624	27.19
761.063	27.6
761.503	26.73
761.943	26.3
762.382	27.41
762.821	27.64
763.261	26.94
763.7	26.75
764.14	26.14
764.579	26.22
765.018	27.32
765.457	27.67
765.897	26.25
766.336	27.1
766.775	27.15
767.214	26.83
767.653	26.57
768.092	26.95
768.531	27.27
768.97	26.57
769.409	27.16
769.848	26.59
770.287	27.1
770.726	27.06
771.165	26.85
771.604	27.1
772.043	27.07
772.482	27.64
772.92	26.57
773.359	27.33
773.798	27.33
774.237	27.93
774.675	27.49
775.114	27.46
775.553	26.97
775.991	27.2
776.43	27.2
776.868	26.86
777.307	26.92
777.745	27.26
778.184	27.66
778.622	27.42
779.06	26.61
779.499	27.38
779.937	27.8
780.375	26.88
780.814	27.21
781.252	27.19
781.69	27.69
782.128	26.4
782.566	27.38
783.004	27.6
783.443	27.11
783.881	27.16
784.319	26.72
784.757	27.66
785.195	27.56
785.633	27.61
786.071	26.73
786.508	27.21
786.946	26.4
787.384	27.47
787.822	27.14
788.26	26.73
788.697	26.46
789.135	27.25
789.573	26.97
790.011	27.19
790.448	27.72
790.886	27.45
791.323	26.67
791.761	27.14
792.198	27.11
792.636	27.18
793.073	27.4
793.511	27.48
793.948	27.37
794.386	27.16
794.823	27.72
795.26	27.58
795.698	27.16
796.135	27.36
796.572	27.16
797.009	27.31
797.446	27.14
797.884	26.99
798.321	27.41
798.758	26.95
799.195	26.95
799.632	27.53
800.069	27.23
800.506	27.4
800.943	27.36
801.38	27.17
801.817	27.36
802.254	27.91
802.69	27
803.127	27.35
803.564	27.02
804.001	27.22
804.438	26.88
804.874	27.52
805.311	27.2
805.748	27.21
806.184	27.54
806.621	27.24
807.057	27.54
807.494	27.28
807.93	27.45
808.367	27.64
808.803	27.64
809.24	27.27
809.676	27.93
810.112	27.52
810.549	27.86
810.985	27.73
811.421	26.87
811.857	27.21
812.294	27.11
812.73	27.47
813.166	27.41
813.602	27.58
814.038	27.78
814.474	27.54
814.91	27.11
815.346	27.4
815.782	27.21
816.218	27.18
816.654	27.24
817.09	26.87
817.526	27.44
817.962	27.23
818.398	27.68
818.833	27.4
819.269	27.51
819.705	27.67
820.141	26.82
820.576	28.18
821.012	27.16
821.447	27.71
821.883	27.25
822.319	28.11
822.754	27.67
823.19	27.66
823.625	27.66
824.061	27.72
824.496	27.54
824.931	27.8
825.367	27.44
825.802	27.45
826.237	27.99
826.673	27.87
827.108	27.86
827.543	27.81
827.978	27.54
828.413	27.68
828.849	27.61
829.284	27.3
829.719	27.7
830.154	27.82
830.589	27.34
831.024	27.41
831.459	27.65
831.894	28.14
832.329	27.61
832.763	27.43
833.198	27.63
833.633	27.28
834.068	27.92
834.503	27.8
834.937	27.68
835.372	27.75
835.807	27.54
836.241	27.68
836.676	28.1
837.111	28.08
837.545	27.95
837.98	28.27
838.414	27.93
838.849	28.06
839.283	28.09
839.717	27.51
840.152	28.05
840.586	28.11
841.021	28.04
841.455	28.14
841.889	27.83
842.323	27.68
842.758	28.12
843.192	28.12
843.626	28.04
844.06	28.34
844.494	28.56
844.928	28.43
845.362	28.32
845.796	28.06
846.23	27.84
846.664	28.03
847.098	28.26
847.532	27.79
847.966	27.73
848.4	27.98
848.834	28.22
849.267	28.1
849.701	28.31
850.135	28.66
850.569	27.68
851.002	28.16
851.436	28.35
851.87	27.78
852.303	28.06
852.737	28.39
853.17	28.48
853.604	28.84
854.037	28.09
854.471	27.89
854.904	27.96
855.337	28
855.771	28.24
856.204	28.43
856.637	27.97
857.071	28.27
857.504	28.36
857.937	28.11
858.37	27.89
858.804	28.24
859.237	28.58
859.67	28.22
860.103	28.22
860.536	28.42
860.969	28.32
861.402	28.01
861.835	27.97
862.268	28.09
862.701	28.55
863.134	27.97
863.566	28.47
863.999	28.31
864.432	28.5
864.865	28.2
865.298	28.35
865.73	28.55
866.163	28.51
866.596	28.37
867.028	28.84
867.461	28.6
867.893	28.43
868.326	28.51
868.758	28.32
869.191	28.42
869.623	28.22
870.056	27.88
870.488	28.27
870.92	27.79
871.353	28.12
871.785	28.21
872.217	28.14
872.65	28.49
873.082	28.79
873.514	28.9
873.946	28.47
874.378	27.66
874.81	28.65
875.243	28.45
875.675	28.59
876.107	28.78
876.539	28.37
876.971	28.17
877.403	28.45
877.834	28.32
878.266	28.68
878.698	28.49
879.13	28.72
879.562	28.57
879.994	28.51
880.425	28.93
880.857	28.64
881.289	28.56
881.72	28.64
882.152	28.26
882.584	28.51
883.015	28.88
883.447	28.4
883.878	28.69
884.31	28.89
884.741	29.2
885.173	28.5
885.604	28.7
886.035	29.26
886.467	28.89
886.898	28.78
887.329	28.75
887.76	28.77
888.192	28.74
888.623	29.27
889.054	28.76
889.485	28.85
889.916	28.94
890.347	29.13
890.778	28.75
891.209	29.16
891.64	28.79
892.071	28.47
892.502	29.4
892.933	28.67
893.364	29.27
893.795	29.19
894.226	28.73
894.657	28.67
895.087	28.55
895.518	29.1
895.949	29.35
896.38	29.02
896.81	29.22
897.241	29.2
897.671	28.77
898.102	29.17
898.533	28.92
898.963	28.87
899.394	28.61
899.824	28.98
900.254	29.24
900.685	29.08
901.115	29.09
901.546	29.07
901.976	29.32
902.406	29.1
902.836	28.86
903.267	29.23
903.697	29.23
904.127	28.64
904.557	29.25
904.987	29.05
905.417	29.12
905.847	29.15
906.277	29.34
906.707	29.62
907.137	29.33
907.567	29.32
907.997	29.66
908.427	29.19
908.857	29.26
909.287	29.34
909.717	29.35
910.146	29.46
910.576	29.26
911.006	29.5
911.436	29.23
911.865	29.11
912.295	29.31
912.724	28.95
913.154	29.42
913.584	29.3
914.013	29.29
914.443	29.15
914.872	29.53
915.302	29.51
915.731	29.03
916.16	29.62
916.59	29.47
917.019	29.45
917.448	29.74
917.878	29.67
918.307	29.66
918.736	29.47
919.165	29.24
919.594	29.47
920.023	29.12
920.452	29.3
920.882	29.65
921.311	29.38
921.74	29.6
922.169	29.21
922.597	29.21
923.026	28.99
923.455	29.32
923.884	29.5
924.313	29.53
924.742	29.24
925.171	29.36
925.599	29.3
926.028	29.32
926.457	29.52
926.885	29.21
927.314	29.41
927.743	29.28
928.171	29.35
928.6	29.21
929.028	29.62
929.457	29.39
929.885	29.04
930.314	29.38
930.742	29.52
931.17	29.58
931.599	29.4
932.027	29.48
932.455	29.37
932.884	29.73
933.312	29.32
933.74	29.44
934.168	29.58
934.596	29.54
935.025	29.48
935.453	29.12
935.881	29.71
936.309	29.61
936.737	29.44
937.165	29
937.593	29.81
938.021	29.37
938.449	29.51
938.876	29.43
939.304	29.51
939.732	28.72
940.16	29.71
940.588	29.64
941.015	29.4
941.443	29.74
941.871	29.79
942.298	29.04
942.726	29.28
943.154	29.11
943.581	29.67
944.009	29.06
944.436	29.29
944.864	30.17
945.291	29.13
945.718	30.27
946.146	29.16
946.573	29.64
947.001	29.55
947.428	29.85
947.855	30.17
948.282	28.87
948.71	30.04
949.137	29.57
949.564	29.65
949.991	29.57
950.418	29.37
950.845	29.86
951.272	30.04
951.699	29.8
952.126	29.86
952.553	29.93
952.98	29.6
953.407	30.08
953.834	29.66
954.261	29.16
954.688	30.12
955.114	30.2
955.541	30.23
955.968	30.02
956.395	29.93
956.821	30.15
957.248	30.24
957.674	29.95
958.101	29.85
958.528	29.87
958.954	29.79
959.381	30.03
959.807	30.11
960.234	29.95
960.66	29.77
961.086	29.83
961.513	29.75
961.939	30
962.365	29.77
962.792	30.16
963.218	29.76
963.644	30.1
964.07	30.16
964.496	30.45
964.923	29.68
965.349	29.98
965.775	30.01
966.201	29.84
966.627	30.18
967.053	29.72
967.479	29.81
967.905	30.02
968.331	30.19
968.756	30.18
969.182	29.86
969.608	30.15
970.034	30.02
970.46	29.94
970.885	30.16
971.311	30.15
971.737	29.79
972.162	29.84
972.588	30.16
973.014	30.17
973.439	30.02
973.865	30.16
974.29	30.2
974.716	29.6
975.141	30.13
975.567	30.15
975.992	30.18
976.417	30.11
976.843	30.14
977.268	30
977.693	30.48
978.119	29.91
978.544	30.31
978.969	30.1
979.394	30.27
979.819	30.26
980.244	30.23
980.669	30.17
981.095	30.43
981.52	30.31
981.945	30.25
982.369	30.12
982.794	30.11
983.219	30.43
983.644	30.2
984.069	30.52
984.494	30.25
984.919	30.65
985.343	30.22
985.768	30.39
986.193	30.53
986.618	30.41
987.042	30.37
987.467	30.48
987.891	30.17
988.316	30.51
988.741	30.56
989.165	30.33
989.59	30.44
990.014	30.46
990.438	30.18
990.863	30.59
991.287	30.57
991.712	30.48
992.136	30.43
992.56	30.23
992.984	30.47
993.409	30.47
993.833	30.5
994.257	30.55
994.681	30.46
995.105	30.4
995.529	30.56
995.953	30.39
996.377	30.8
996.801	30.65
997.225	30.55
997.649	30.55
998.073	30.81
998.497	30.61
998.921	31.08
999.345	30.45
999.769	30.51
1000.192	30.45
1000.616	30.8
1001.04	30.69
1001.464	31.26
1001.887	31.02
1002.311	30.79
1002.734	30.95
1003.158	31.21
1003.582	31.18
1004.005	30.75
1004.429	30.9
1004.852	30.94
1005.275	30.71
1005.699	30.72
1006.122	31.02
1006.546	30.84
1006.969	31.09
1007.392	30.84
1007.815	30.98
1008.239	30.83
1008.662	31.26
1009.085	31.3
1009.508	30.84
1009.931	30.8
1010.354	30.96
1010.778	31.26
1011.201	30.88
1011.624	31.03
1012.047	31.5
1012.469	31.16
1012.892	30.94
1013.315	30.83
1013.738	30.83
1014.161	31.25
1014.584	31.41
1015.007	31.39
1015.429	30.87
1015.852	31.44
1016.275	31.51
1016.697	31.16
1017.12	31
1017.543	31.59
1017.965	30.92
1018.388	31.47
1018.81	31.17
1019.233	31.31
1019.655	31.45
1020.078	31.68
1020.5	31.84
1020.922	31.02
1021.345	31.28
1021.767	30.99
1022.189	31.62
1022.612	31.51
1023.034	31.64
1023.456	31.47
1023.878	31.33
1024.301	31.19
1024.723	31.61
1025.145	31.77
1025.567	31.41
1025.989	31.53
1026.411	31.58
1026.833	31.57
1027.255	30.99
1027.677	31.44
1028.099	31.56
1028.52	31.32
1028.942	31.82
1029.364	31.79
1029.786	31.29
1030.208	31.76
1030.629	31.58
1031.051	31.8
1031.473	31.48
1031.894	31.87
1032.316	31.19
1032.738	31.79
1033.159	31.93
1033.581	31.61
1034.002	31.12
1034.424	31.69
1034.845	31.38
1035.267	31.71
1035.688	31.67
1036.109	31.31
1036.531	31.42
1036.952	31.74
1037.373	31.82
1037.794	31.99
1038.216	31.92
1038.637	32.1
1039.058	31.94
1039.479	32.01
1039.9	31.43
1040.321	31.47
1040.742	31.71
1041.163	31.6
1041.584	31.77
1042.005	31.72
1042.426	31.96
1042.847	31.77
1043.268	31.86
1043.689	32.21
1044.11	31.95
1044.53	32.22
1044.951	31.75
1045.372	31.91
1045.793	31.84
1046.213	31.78
1046.634	32.27
1047.055	31.87
1047.475	31.7
1047.896	31.46
1048.316	32.02
1048.737	31.7
1049.157	31.34
1049.578	32.27
1049.998	31.59
1050.419	32.59
1050.839	31.54
1051.259	31.49
1051.68	31.5
1052.1	31.69
1052.52	31.94
1052.94	31.94
1053.361	32.3
1053.781	31.65
1054.201	31.94
1054.621	31.79
1055.041	31.99
1055.461	31.86
1055.881	32.7
1056.301	31.78
1056.721	32.37
1057.141	32.46
1057.561	32.42
1057.981	31.87
1058.401	32.25
1058.82	31.88
1059.24	32.48
1059.66	32.14
1060.08	32.01
1060.499	32.23
1060.919	32.26
1061.339	33.16
1061.758	32.9
1062.178	32.92
1062.598	32.16
1063.017	32.45
1063.437	32.25
1063.856	31.82
1064.276	32.31
1064.695	32.75
1065.114	33.03
1065.534	32.64
1065.953	32.13
1066.372	32.39
1066.792	32.66
1067.211	32.31
1067.63	32.15
1068.049	32.35
1068.469	32.03
1068.888	32.42
1069.307	31.35
1069.726	32.8
1070.145	32.17
1070.564	31.72
1070.983	32.02
1071.402	33.59
1071.821	32.44
1072.24	32.69
1072.659	32.65
1073.078	32.47
1073.496	31.97
1073.915	32.68
1074.334	32.72
1074.753	32.11
1075.171	32.38
1075.59	32.82
1076.009	32.86
1076.427	33.52
1076.846	31.81
1077.265	32.91
1077.683	32.27
1078.102	32.72
1078.52	31.83
1078.939	31.98
1079.357	32.2
1079.776	33.63
1080.194	31.96
1080.612	32.56
1081.031	32.34
1081.449	31.65
1081.867	32.93
1082.285	32.79
1082.704	31.94
1083.122	31.97
1083.54	32.41
1083.958	32.85
1084.376	31.94
1084.794	31.94
1085.212	32.96
1085.63	32.64
1086.048	33.07
1086.466	32.44
1086.884	31.76
1087.302	33.23
1087.72	33.16
1088.138	32.36
1088.555	32.41
1088.973	33.12
1089.391	31.93
1089.809	31.57
1090.226	33.09
1090.644	32.68
1091.062	32.77
1091.479	32.03
1091.897	32.39
1092.314	31.96
1092.732	33.63
1093.15	32.65
1093.567	32.31
1093.984	33.28
1094.402	31.38
1094.819	32.52
1095.237	32.07
1095.654	33.52
1096.071	32.4
1096.488	31.43
1096.906	30.68
1097.323	32.71
1097.74	31.81
1098.157	31.47
1098.574	33.5
1098.991	32.2
1099.409	34.34
1099.826	31.41
1100.243	31.94
1100.66	32.76
1101.077	33.01
1101.494	32.51
1101.91	31.63
1102.327	33.35
1102.744	31.83
1103.161	31.73
1103.578	31.26
1103.994	32.76
1104.411	32.96
1104.828	33.82
1105.245	34.65
1105.661	31.32
1106.078	31.67
1106.494	33.51
1106.911	33.41
1107.328	31.61
1107.744	33.63
1108.161	32.57
1108.577	31.42
1108.993	31.77
1109.41	33.64
1109.826	31.8
1110.242	32.82
1110.659	30.95
1111.075	33.99
1111.491	31.41
1111.908	32.66
1112.324	30.1
1112.74	36.81
1113.156	30.37
1113.572	33.71
1113.988	32.79
1114.404	33.26
1114.82	32.28
1115.236	32.57
1115.652	30.48
1116.068	30.41
1116.484	30.87
1116.9	28.91
1117.316	29.15
1117.732	116.67
1118.147	41.67
1118.563	13.33
1118.979	133.33
