Data from JCR0029_Black1_Reflection_00001.txt Node
Date: Fri Jul 31 12:55:23 ACST 2020
User: Stacey Dix
Spectrometer: MAYP113282
Scans to average: 1
Trigger mode: 0
Integration Time (sec): 1.000000E-1
Electric dark correction enabled: true
Boxcar width: 0
XAxis mode: Wavelengths
Number of Pixels in Spectrum: 2068
>>>>>Begin Spectral Data<<<<<
198.791	195.45
199.266	-143.75
199.74	55
200.215	-275
200.69	21.57
201.164	15.16
201.639	41.81
202.114	32.94
202.588	34.34
203.063	34.86
203.537	31.59
204.012	43.3
204.486	28.54
204.961	25.88
205.435	16.39
205.909	12.95
206.384	13.21
206.858	4.6
207.332	25.86
207.807	20.03
208.281	35.64
208.755	14.47
209.229	21.72
209.703	10.85
210.177	41.78
210.651	15.37
211.126	35.04
211.6	8.46
212.074	16.71
212.548	12.36
213.021	2.79
213.495	37.24
213.969	22.51
214.443	34.68
214.917	20.43
215.391	10.76
215.864	10.19
216.338	13.3
216.812	20.75
217.286	18.84
217.759	20.11
218.233	6.35
218.706	17.35
219.18	6.66
219.654	3.22
220.127	19.31
220.6	5.61
221.074	16.55
221.547	13.31
222.021	7.65
222.494	14.97
222.967	15.71
223.441	12.45
223.914	13.46
224.387	6.25
224.86	14.24
225.334	10.43
225.807	8.06
226.28	7.32
226.753	9.08
227.226	8.84
227.699	7.69
228.172	8.49
228.645	7.07
229.118	1.38
229.591	8.32
230.064	6.95
230.537	7.97
231.01	5.66
231.482	5.71
231.955	3.46
232.428	3.59
232.901	5.04
233.373	4.21
233.846	5.02
234.319	4.13
234.791	3.89
235.264	3.41
235.736	3.04
236.209	3.2
236.681	4.23
237.154	5.07
237.626	4.46
238.099	5.38
238.571	3.29
239.044	4.62
239.516	3.31
239.988	3.76
240.46	3.71
240.933	2.47
241.405	5.1
241.877	3.52
242.349	4.37
242.821	4.19
243.293	3.21
243.765	3.17
244.237	3.61
244.71	4.24
245.181	3.86
245.653	3.4
246.125	4.73
246.597	5.46
247.069	4.49
247.541	3.92
248.013	3.47
248.485	3.09
248.956	4.54
249.428	2.45
249.9	3.38
250.371	3.31
250.843	3.63
251.315	4.08
251.786	2.54
252.258	3.36
252.729	3.57
253.201	3.21
253.672	2.06
254.144	3.44
254.615	2.81
255.086	3.29
255.558	3.18
256.029	2.35
256.5	3.02
256.972	2.97
257.443	2.45
257.914	3.19
258.385	2.6
258.856	3.11
259.327	2.7
259.799	2.18
260.27	2.86
260.741	2.11
261.212	2.89
261.683	2.87
262.154	2.36
262.624	2.24
263.095	2.75
263.566	2.39
264.037	3.31
264.508	2.44
264.979	2.89
265.449	2.27
265.92	2.56
266.391	2.45
266.861	2.12
267.332	2.66
267.803	2.74
268.273	2.89
268.744	2.62
269.214	2.77
269.685	2.35
270.155	2.74
270.626	3.34
271.096	2.21
271.566	3.51
272.037	2.99
272.507	3.85
272.977	2.39
273.448	1.83
273.918	2.12
274.388	2.49
274.858	1.89
275.328	3.42
275.798	2.49
276.268	2.87
276.738	2.17
277.208	3.41
277.678	2.06
278.148	2.86
278.618	2.75
279.088	3.17
279.558	2.1
280.028	2.62
280.498	2.43
280.968	2.41
281.437	2.59
281.907	3.06
282.377	1.88
282.847	1.94
283.316	1.94
283.786	2.53
284.255	2.33
284.725	2.53
285.194	2.37
285.664	2.31
286.133	1.89
286.603	1.76
287.072	2.18
287.542	2.24
288.011	2.26
288.48	2.19
288.95	2.53
289.419	2.31
289.888	1.79
290.357	2.36
290.827	2.52
291.296	2.66
291.765	1.27
292.234	2.7
292.703	1.61
293.172	3.26
293.641	1.54
294.11	1.61
294.579	2.41
295.048	2.76
295.517	1.91
295.986	2.85
296.455	2.29
296.923	2.9
297.392	2
297.861	2.06
298.33	2.13
298.798	2.3
299.267	2.93
299.736	2.33
300.204	2.79
300.673	2.71
301.141	2.37
301.61	2.24
302.079	1.87
302.547	2.7
303.015	2.04
303.484	2.3
303.952	2.69
304.421	2.29
304.889	2.62
305.357	2.5
305.825	2.34
306.294	3.59
306.762	2.73
307.23	3.1
307.698	2.95
308.166	3
308.634	1.92
309.103	2
309.571	2.86
310.039	2.61
310.507	2.43
310.975	2.48
311.442	1.96
311.91	2.3
312.378	2.86
312.846	2.65
313.314	3.18
313.782	2.03
314.249	2.87
314.717	3.04
315.185	2.62
315.652	2.81
316.12	2.14
316.588	2.19
317.055	3.29
317.523	2.94
317.99	2.85
318.458	2.22
318.925	2.99
319.393	2.6
319.86	3.04
320.328	2.93
320.795	2.83
321.262	2.97
321.73	2.49
322.197	3.16
322.664	3.44
323.131	4.23
323.598	3.79
324.066	3.93
324.533	4.18
325	5.98
325.467	5.14
325.934	5.66
326.401	6.57
326.868	6.76
327.335	7.37
327.802	7.48
328.269	7.84
328.735	8.34
329.202	9.19
329.669	9.07
330.136	9.96
330.603	9.38
331.069	10.86
331.536	9.96
332.003	10.71
332.469	11.12
332.936	11.07
333.402	12.19
333.869	12.13
334.336	11.01
334.802	11.65
335.268	11.48
335.735	11.53
336.201	13.34
336.668	12.19
337.134	11.44
337.6	12.23
338.067	11.54
338.533	11.73
338.999	11.6
339.465	12.85
339.931	12.24
340.398	12.43
340.864	12.18
341.33	11.47
341.796	12.46
342.262	12.07
342.728	12.21
343.194	11.6
343.66	11.45
344.126	12.67
344.592	11.9
345.057	12.29
345.523	11.73
345.989	11.25
346.455	11.51
346.921	11.48
347.386	12.35
347.852	11.4
348.318	12.58
348.783	10.99
349.249	11.57
349.714	11.32
350.18	11.81
350.645	11.96
351.111	10.98
351.576	10.7
352.042	11.83
352.507	12.65
352.973	12.49
353.438	10.61
353.903	12.64
354.369	11.46
354.834	11.63
355.299	12.25
355.764	11.42
356.229	10.54
356.695	12.82
357.16	10.77
357.625	11.09
358.09	10.35
358.555	12.65
359.02	12.17
359.485	11.08
359.95	11.04
360.415	11.98
360.879	12.36
361.344	11.85
361.809	13.22
362.274	10.99
362.739	12.72
363.203	11.17
363.668	11.75
364.133	11.7
364.597	11.15
365.062	11.9
365.527	12.2
365.991	11.94
366.456	12.74
366.92	12.36
367.385	13.17
367.849	11.77
368.314	11.55
368.778	12.43
369.242	13.3
369.707	13.61
370.171	11.9
370.635	11.72
371.1	12.52
371.564	12.98
372.028	12.2
372.492	13.03
372.956	11.95
373.42	13.33
373.884	11.13
374.348	11.84
374.812	13.02
375.276	11.88
375.74	12.52
376.204	13.11
376.668	13.19
377.132	14.08
377.596	12.17
378.06	12.97
378.524	12.31
378.987	12.37
379.451	12.73
379.915	13.09
380.378	12.9
380.842	13.02
381.306	13.46
381.769	13.7
382.233	13.32
382.696	12.51
383.16	13.58
383.623	12.35
384.087	13.96
384.55	12.45
385.014	12.89
385.477	13.21
385.94	13.38
386.404	13.41
386.867	14.72
387.33	12.33
387.793	14.14
388.256	13.09
388.72	13.15
389.183	13.78
389.646	13.49
390.109	14.32
390.572	15.55
391.035	13.68
391.498	13.59
391.961	13.83
392.424	13.55
392.887	12.99
393.35	13.39
393.812	13.18
394.275	12.53
394.738	13.98
395.201	14.02
395.664	12.93
396.126	15.45
396.589	13.38
397.052	13.82
397.514	12.8
397.977	13.37
398.439	12.67
398.902	13.08
399.364	13.61
399.827	12.74
400.289	13.8
400.752	13.68
401.214	14.6
401.676	13.52
402.139	13.77
402.601	13.68
403.063	13.82
403.525	14.58
403.988	14.52
404.45	13.71
404.912	14.16
405.374	13.12
405.836	12.66
406.298	14.55
406.76	13.28
407.222	13.08
407.684	13.29
408.146	14.52
408.608	13.4
409.07	14.25
409.532	13.72
409.994	13.4
410.456	13.75
410.917	13.88
411.379	13.76
411.841	14.84
412.303	13.02
412.764	13.28
413.226	14.1
413.687	13.77
414.149	13.13
414.611	13.22
415.072	13.81
415.534	13.69
415.995	13.97
416.457	13.58
416.918	14.02
417.379	13.51
417.841	13.2
418.302	13.59
418.763	14.25
419.225	13.83
419.686	15.21
420.147	13.42
420.608	14.7
421.069	15.25
421.53	15.02
421.991	14.68
422.453	15.35
422.914	15.87
423.375	13.58
423.836	14.69
424.297	15.22
424.757	14.79
425.218	14.54
425.679	15.88
426.14	13.36
426.601	15.23
427.062	14.45
427.522	14.08
427.983	15.87
428.444	16.25
428.904	15.54
429.365	15.42
429.826	13.77
430.286	15.48
430.747	16.15
431.207	16.64
431.668	15.34
432.128	17.16
432.589	15.79
433.049	14.72
433.509	16.66
433.97	16.19
434.43	16.67
434.89	15.1
435.351	15.58
435.811	15.39
436.271	16.39
436.731	17.45
437.191	16.34
437.651	17.19
438.112	16.32
438.572	15.73
439.032	16.06
439.492	15.52
439.952	17.02
440.412	15.28
440.871	16.63
441.331	17.33
441.791	18.81
442.251	17.18
442.711	14.49
443.171	15.6
443.63	15.43
444.09	16.34
444.55	16.43
445.009	17.01
445.469	15.86
445.929	17.59
446.388	17.04
446.848	16.57
447.307	17.6
447.767	15.53
448.226	17.53
448.686	16.63
449.145	15.17
449.604	15.61
450.064	17
450.523	17.24
450.982	16.24
451.442	17.61
451.901	18.74
452.36	15.61
452.819	16.89
453.278	15.27
453.737	16.76
454.197	16.56
454.656	15.41
455.115	16.98
455.574	17.74
456.033	17.37
456.492	16.48
456.95	16.89
457.409	16.94
457.868	15.66
458.327	16.97
458.786	15.37
459.245	16.21
459.703	16.01
460.162	17.78
460.621	15.5
461.079	16.04
461.538	16.5
461.997	15.54
462.455	15.92
462.914	17.24
463.372	14.77
463.831	15.28
464.289	17.52
464.748	16.03
465.206	17.46
465.664	15.54
466.123	15.46
466.581	18.39
467.039	17.47
467.497	15.76
467.956	16.58
468.414	17.82
468.872	16.23
469.33	14.89
469.788	17.11
470.246	17.88
470.704	16.54
471.162	15.5
471.62	17.43
472.078	15.5
472.536	15.46
472.994	17.98
473.452	15.59
473.91	16.54
474.368	16.45
474.826	17.31
475.283	18.62
475.741	15.71
476.199	17.25
476.656	16.54
477.114	17.59
477.572	15.32
478.029	16.84
478.487	16.81
478.944	18.02
479.402	16.79
479.859	15.28
480.317	16.67
480.774	18.1
481.232	16.66
481.689	16.45
482.146	15.46
482.604	16.99
483.061	18.68
483.518	16.84
483.975	16.36
484.433	16.78
484.89	17.61
485.347	16.87
485.804	16.22
486.261	17.43
486.718	17.67
487.175	19.23
487.632	15.5
488.089	16.17
488.546	20.42
489.003	16.81
489.46	16.34
489.917	17.96
490.373	18.26
490.83	14.85
491.287	18.88
491.744	15.23
492.2	17.04
492.657	17.06
493.114	15.59
493.57	14.6
494.027	18.13
494.484	16.24
494.94	16.69
495.397	17.73
495.853	18.4
496.31	17.88
496.766	16.23
497.222	17.48
497.679	15.75
498.135	17.16
498.591	15.02
499.048	15.34
499.504	17.82
499.96	17.04
500.416	18.09
500.872	15.42
501.329	16.83
501.785	16.94
502.241	16.68
502.697	18.17
503.153	17.93
503.609	16.29
504.065	15.82
504.521	16.93
504.977	17.68
505.432	14.81
505.888	16.22
506.344	17.62
506.8	17.6
507.256	17.24
507.711	17.72
508.167	17.92
508.623	17.07
509.078	18.23
509.534	18.8
509.99	19.15
510.445	18.14
510.901	15.44
511.356	18.28
511.812	17.22
512.267	17.47
512.722	16.99
513.178	15.67
513.633	18.75
514.089	16.17
514.544	17.94
514.999	17.36
515.454	17.31
515.91	16.82
516.365	16.73
516.82	15.12
517.275	17.26
517.73	16.38
518.185	16.79
518.64	18.26
519.095	17.44
519.55	17.01
520.005	17.28
520.46	17.6
520.915	16.14
521.37	16.02
521.825	17.61
522.28	15.67
522.734	17.16
523.189	17.14
523.644	17.3
524.099	17.02
524.553	16.76
525.008	18.72
525.462	18.61
525.917	18.42
526.372	15.98
526.826	17.74
527.281	16.7
527.735	16.45
528.19	16.88
528.644	16.48
529.098	17.24
529.553	15.54
530.007	16.12
530.461	16.17
530.916	16.09
531.37	15.78
531.824	16.51
532.278	17.28
532.732	17.86
533.186	16.43
533.641	16.54
534.095	18.34
534.549	17.63
535.003	16.13
535.457	16.37
535.911	17.22
536.365	16.77
536.818	17.1
537.272	18.78
537.726	17.51
538.18	17.87
538.634	16.01
539.087	17.59
539.541	16.55
539.995	16.79
540.449	16.46
540.902	16.06
541.356	18.77
541.809	17.77
542.263	16.57
542.716	17.92
543.17	17.19
543.623	17.34
544.077	17.64
544.53	16.31
544.984	17.53
545.437	18.15
545.89	16.74
546.344	17.46
546.797	18.42
547.25	17.64
547.703	18.03
548.157	16.02
548.61	17.72
549.063	17.12
549.516	17.03
549.969	18.36
550.422	16.84
550.875	18.87
551.328	16.86
551.781	17.48
552.234	18.79
552.687	16.23
553.14	17.14
553.592	17.78
554.045	17.94
554.498	16.94
554.951	17.09
555.404	17.55
555.856	18.15
556.309	18.01
556.762	17.89
557.214	16.43
557.667	17.15
558.119	18.95
558.572	15.07
559.024	17.86
559.477	17.47
559.929	18.11
560.382	19
560.834	17.67
561.286	16.57
561.739	16.63
562.191	17.38
562.643	17.76
563.095	17.12
563.548	16.51
564	16.12
564.452	17.59
564.904	15.68
565.356	17.89
565.808	16.89
566.26	16.58
566.712	17.82
567.164	17.54
567.616	17.2
568.068	18.08
568.52	18.04
568.972	16.82
569.424	16.21
569.876	17.29
570.327	17.92
570.779	16.78
571.231	17.52
571.682	17.27
572.134	17.73
572.586	18.4
573.037	17.36
573.489	16.75
573.941	17.49
574.392	17.21
574.844	16.57
575.295	18.06
575.746	17.44
576.198	17.81
576.649	17.11
577.101	17.67
577.552	18.36
578.003	16.67
578.454	17.61
578.906	16.7
579.357	17.39
579.808	16.72
580.259	17.42
580.71	18.38
581.161	17.35
581.612	16.79
582.064	18.17
582.515	18.57
582.965	17.44
583.416	17.26
583.867	16.22
584.318	17.85
584.769	17.84
585.22	17.86
585.671	17.4
586.122	18.53
586.572	16.72
587.023	18.12
587.474	17.67
587.924	18.2
588.375	17.36
588.826	18.1
589.276	18.52
589.727	17.53
590.177	17.16
590.628	17.58
591.078	15.69
591.529	17.93
591.979	17
592.429	17.89
592.88	17.5
593.33	17.66
593.78	17.33
594.231	18.11
594.681	17.77
595.131	17.8
595.581	17.68
596.031	17.37
596.481	17.21
596.932	18.37
597.382	18.29
597.832	18.08
598.282	17.22
598.732	17.7
599.182	17.42
599.632	16.66
600.081	17.1
600.531	17.98
600.981	18.07
601.431	16.94
601.881	17.42
602.33	17.55
602.78	17.24
603.23	17
603.679	17.68
604.129	17.6
604.579	18.06
605.028	16.37
605.478	17
605.927	17.65
606.377	18.55
606.826	17.89
607.276	16.83
607.725	17.81
608.175	17.41
608.624	17.08
609.073	17.21
609.522	18.07
609.972	16.88
610.421	17.45
610.87	17.95
611.319	17.82
611.768	17.82
612.218	17.86
612.667	19.88
613.116	17.34
613.565	17.88
614.014	17.43
614.463	17.6
614.912	17.26
615.361	17.54
615.81	18.07
616.258	18.42
616.707	17.27
617.156	18.13
617.605	17.45
618.054	18.06
618.502	17.4
618.951	18.26
619.4	18.1
619.848	18.53
620.297	17.21
620.745	18.4
621.194	17.67
621.642	17.82
622.091	17.37
622.539	17.59
622.988	16.92
623.436	18.09
623.885	17.23
624.333	17.58
624.781	18.21
625.23	17.91
625.678	18.03
626.126	18.36
626.574	18.22
627.022	17.69
627.471	17.46
627.919	17.75
628.367	17.71
628.815	17.68
629.263	17.34
629.711	17.55
630.159	17.35
630.607	16.69
631.055	17.47
631.503	17.73
631.95	17.55
632.398	17.47
632.846	17.89
633.294	17.11
633.742	17.9
634.189	18.12
634.637	18.05
635.085	16.93
635.532	18.11
635.98	17.89
636.427	16.69
636.875	17.28
637.323	17.66
637.77	18.25
638.217	18.12
638.665	17.21
639.112	18.83
639.56	17.33
640.007	17.88
640.454	18.02
640.902	18.79
641.349	18.21
641.796	17.04
642.243	17.96
642.69	17.33
643.138	17.84
643.585	18.4
644.032	18.08
644.479	17.91
644.926	18.09
645.373	17.5
645.82	17.97
646.267	17.94
646.714	18.25
647.161	17.8
647.607	17.6
648.054	17.63
648.501	18.13
648.948	17.44
649.395	17.57
649.841	17.62
650.288	17.04
650.735	18.45
651.181	17.73
651.628	17.72
652.075	17.11
652.521	17.25
652.968	17.92
653.414	17.19
653.861	17.15
654.307	18.22
654.753	17.29
655.2	17.38
655.646	16.89
656.092	17.61
656.539	17.76
656.985	16.94
657.431	17.7
657.877	18.21
658.324	17.51
658.77	18.51
659.216	17.37
659.662	18.18
660.108	18.65
660.554	18.15
661	17.35
661.446	17.79
661.892	18.21
662.338	17.28
662.784	17.91
663.23	17.49
663.675	18.97
664.121	18.24
664.567	18.94
665.013	17.39
665.458	17.49
665.904	17.81
666.35	17.31
666.795	18.43
667.241	17.59
667.687	17.66
668.132	18.31
668.578	17.44
669.023	17.72
669.469	17.92
669.914	17.53
670.359	18.34
670.805	17.98
671.25	17.72
671.695	18.16
672.141	17.49
672.586	17.74
673.031	18.31
673.476	18.22
673.922	18.41
674.367	17.93
674.812	17.59
675.257	17.88
675.702	17.71
676.147	18.38
676.592	18.33
677.037	16.87
677.482	18.18
677.927	17.49
678.372	18.7
678.817	17.54
679.261	18.02
679.706	18.1
680.151	17.8
680.596	17.21
681.04	18.11
681.485	17.96
681.93	17.72
682.374	17.7
682.819	18.03
683.264	18.75
683.708	18.45
684.153	18.53
684.597	17.96
685.042	17.89
685.486	18.68
685.93	17.36
686.375	18
686.819	17.66
687.263	18.38
687.708	17.64
688.152	18.19
688.596	18.36
689.04	18.71
689.485	18.2
689.929	18.29
690.373	17.56
690.817	18.98
691.261	17.66
691.705	18.15
692.149	18.69
692.593	17.51
693.037	18.36
693.481	18.13
693.925	18.37
694.369	18.42
694.812	17.87
695.256	18.58
695.7	18.31
696.144	17.47
696.587	18.26
697.031	18.15
697.475	17.62
697.918	17.98
698.362	17.6
698.806	18.11
699.249	18.14
699.693	18.18
700.136	18.36
700.58	18.03
701.023	18.18
701.466	17.82
701.91	18.21
702.353	17.54
702.796	17.84
703.24	17.93
703.683	17.95
704.126	18.61
704.569	17.59
705.013	17.86
705.456	18.52
705.899	17.78
706.342	18
706.785	17.52
707.228	19.27
707.671	18.29
708.114	17.8
708.557	17.82
709	18.04
709.443	18.25
709.886	17.96
710.328	18.12
710.771	17.31
711.214	18.19
711.657	17.92
712.099	17.83
712.542	18.31
712.985	18.05
713.427	17.79
713.87	18.21
714.313	18.39
714.755	17.74
715.198	18.06
715.64	17.59
716.083	18.01
716.525	18
716.967	18.14
717.41	19.01
717.852	18.36
718.295	18.67
718.737	18.65
719.179	18.29
719.621	18.37
720.063	18.64
720.506	18.27
720.948	18.71
721.39	18.16
721.832	17.85
722.274	17.87
722.716	18.2
723.158	18.23
723.6	18.35
724.042	18.29
724.484	17.87
724.926	17.83
725.368	18.23
725.81	17.95
726.251	18.51
726.693	18.25
727.135	18.54
727.577	17.86
728.018	18.21
728.46	17.79
728.902	18.6
729.343	18.1
729.785	18.32
730.226	17.93
730.668	17.92
731.109	17.59
731.551	18.52
731.992	18.08
732.434	18.12
732.875	18.53
733.316	18.54
733.758	18.42
734.199	18.12
734.64	17.95
735.081	18.46
735.523	18.18
735.964	18.1
736.405	18.51
736.846	18.72
737.287	18.01
737.728	17.54
738.169	18.28
738.61	18.66
739.051	18.26
739.492	18.66
739.933	18.67
740.374	18.28
740.815	18.14
741.256	18.69
741.696	18.59
742.137	18.01
742.578	18.36
743.019	18.49
743.459	18.65
743.9	18.55
744.341	19.13
744.781	18.12
745.222	17.91
745.662	18.52
746.103	18.25
746.543	17.68
746.984	18.89
747.424	18.72
747.865	18.17
748.305	18.76
748.745	18.44
749.186	19.06
749.626	18.41
750.066	18.65
750.506	18.61
750.947	18.76
751.387	18.22
751.827	18.61
752.267	18.78
752.707	19.08
753.147	18.51
753.587	18.38
754.027	18.44
754.467	18.56
754.907	18.82
755.347	18.9
755.787	18.1
756.227	18.65
756.667	18.95
757.107	18.76
757.546	18.31
757.986	18.69
758.426	18.78
758.865	18.66
759.305	18.68
759.745	18.87
760.184	18.21
760.624	19.18
761.063	18.96
761.503	18.34
761.943	17.94
762.382	18.51
762.821	19.18
763.261	18.71
763.7	18.27
764.14	18.58
764.579	18.55
765.018	18.76
765.457	18.56
765.897	18.48
766.336	18.91
766.775	18.09
767.214	18.9
767.653	18.39
768.092	18.42
768.531	19.06
768.97	18.84
769.409	18.1
769.848	18.87
770.287	19.07
770.726	18.7
771.165	18.46
771.604	18.78
772.043	18.42
772.482	18.75
772.92	18.77
773.359	18.31
773.798	19.15
774.237	19.03
774.675	19.12
775.114	18.53
775.553	18.97
775.991	18.29
776.43	19.3
776.868	18.31
777.307	18.71
777.745	18.66
778.184	18.96
778.622	18.66
779.06	18.71
779.499	19.24
779.937	18.61
780.375	19.26
780.814	18.48
781.252	18.77
781.69	18.48
782.128	18.82
782.566	18.7
783.004	18.82
783.443	18.71
783.881	19.28
784.319	18.36
784.757	19.47
785.195	18.95
785.633	18.72
786.071	18.5
786.508	18.95
786.946	18.56
787.384	18.89
787.822	19.2
788.26	18.57
788.697	18.66
789.135	18.75
789.573	19.48
790.011	19.18
790.448	18.91
790.886	19.04
791.323	19.07
791.761	19.03
792.198	19.3
792.636	18.85
793.073	19.17
793.511	19.06
793.948	19.09
794.386	18.83
794.823	19.01
795.26	19.32
795.698	19.08
796.135	19.33
796.572	18.94
797.009	18.03
797.446	19.3
797.884	18.97
798.321	19.13
798.758	18.72
799.195	19.65
799.632	18.78
800.069	19.42
800.506	19.06
800.943	18.9
801.38	18.9
801.817	19.2
802.254	19.11
802.69	19.31
803.127	19.31
803.564	19.23
804.001	19.13
804.438	19.7
804.874	18.79
805.311	19.5
805.748	19.27
806.184	18.88
806.621	19.51
807.057	19.37
807.494	19.35
807.93	19.35
808.367	19.29
808.803	19.31
809.24	19.06
809.676	19.28
810.112	18.54
810.549	19.24
810.985	19.01
811.421	19.27
811.857	19.65
812.294	18.7
812.73	19.39
813.166	19.14
813.602	19.38
814.038	19.47
814.474	19.32
814.91	19.21
815.346	18.96
815.782	19.13
816.218	20.3
816.654	19.64
817.09	19.38
817.526	19.51
817.962	19.26
818.398	19.61
818.833	19.23
819.269	19.55
819.705	19.4
820.141	18.85
820.576	19.46
821.012	18.98
821.447	19.33
821.883	19.76
822.319	19.25
822.754	19.46
823.19	19.55
823.625	19.69
824.061	19.64
824.496	19.02
824.931	19.7
825.367	19.42
825.802	19.81
826.237	19.38
826.673	19.44
827.108	19.26
827.543	19
827.978	19.53
828.413	19.48
828.849	19.81
829.284	19.61
829.719	19.82
830.154	19.69
830.589	19.63
831.024	19.52
831.459	19.42
831.894	19.82
832.329	19.97
832.763	19.83
833.198	19.79
833.633	19.51
834.068	20.06
834.503	20.13
834.937	19.52
835.372	19.79
835.807	20.06
836.241	19.75
836.676	19.62
837.111	19.65
837.545	19.71
837.98	19.51
838.414	19.47
838.849	19.72
839.283	19.71
839.717	19.81
840.152	19.63
840.586	20
841.021	19.68
841.455	19.77
841.889	19.7
842.323	20.21
842.758	19.51
843.192	19.27
843.626	19.96
844.06	19.86
844.494	19.56
844.928	20.13
845.362	19.71
845.796	19.88
846.23	19.68
846.664	19.89
847.098	19.79
847.532	20.03
847.966	19.46
848.4	20.08
848.834	19.78
849.267	19.73
849.701	19.51
850.135	19.97
850.569	19.6
851.002	19.67
851.436	19.73
851.87	19.77
852.303	20.09
852.737	19.76
853.17	20.39
853.604	20.3
854.037	19.85
854.471	20.19
854.904	20.12
855.337	20.09
855.771	20.2
856.204	20.27
856.637	20.22
857.071	19.74
857.504	20.19
857.937	19.83
858.37	19.95
858.804	19.83
859.237	19.89
859.67	20.35
860.103	20.32
860.536	20.13
860.969	20.1
861.402	20.13
861.835	19.94
862.268	20
862.701	19.97
863.134	20.46
863.566	20.7
863.999	20.17
864.432	20.36
864.865	20.05
865.298	20.29
865.73	20
866.163	19.78
866.596	20.05
867.028	20.4
867.461	20.48
867.893	20.19
868.326	19.96
868.758	20.34
869.191	20.04
869.623	19.86
870.056	20.24
870.488	20.33
870.92	20.24
871.353	20.25
871.785	20.16
872.217	20.53
872.65	20.34
873.082	20.21
873.514	20.22
873.946	20.29
874.378	20.44
874.81	20.23
875.243	19.96
875.675	20.66
876.107	20.58
876.539	20.77
876.971	20.64
877.403	20.52
877.834	20.65
878.266	20.66
878.698	20.3
879.13	20.26
879.562	20.54
879.994	20.62
880.425	20.36
880.857	20.77
881.289	20.19
881.72	20.5
882.152	20.48
882.584	20.67
883.015	20.47
883.447	20.49
883.878	20.68
884.31	20.44
884.741	20.42
885.173	20.66
885.604	20.76
886.035	20.48
886.467	20.69
886.898	20.51
887.329	20.58
887.76	20.5
888.192	20.87
888.623	20.58
889.054	20.39
889.485	20.51
889.916	20.62
890.347	21.06
890.778	21.06
891.209	20.42
891.64	20.89
892.071	20.56
892.502	20.6
892.933	20.52
893.364	20.84
893.795	20.72
894.226	20.79
894.657	20.79
895.087	21.09
895.518	20.73
895.949	20.66
896.38	20.77
896.81	20.54
897.241	20.87
897.671	20.98
898.102	21
898.533	20.89
898.963	21.31
899.394	20.98
899.824	21.03
900.254	20.87
900.685	21.59
901.115	20.74
901.546	21.36
901.976	21.03
902.406	20.67
902.836	20.93
903.267	20.77
903.697	21.08
904.127	21.05
904.557	21.11
904.987	20.87
905.417	20.9
905.847	20.96
906.277	20.86
906.707	20.98
907.137	21.24
907.567	21.25
907.997	21.25
908.427	21.17
908.857	21.17
909.287	21.55
909.717	21.11
910.146	20.93
910.576	21.43
911.006	21.13
911.436	21.34
911.865	20.99
912.295	21.26
912.724	21
913.154	21.54
913.584	21.19
914.013	21.27
914.443	21.21
914.872	21.18
915.302	21.49
915.731	21.2
916.16	21.11
916.59	21.44
917.019	20.91
917.448	21.14
917.878	21.25
918.307	21.29
918.736	21.09
919.165	21.38
919.594	21.6
920.023	20.98
920.452	21.76
920.882	21.72
921.311	21.41
921.74	20.92
922.169	21.48
922.597	21.41
923.026	21.39
923.455	21.43
923.884	21.62
924.313	21.3
924.742	21.69
925.171	21.67
925.599	21.37
926.028	21.57
926.457	21.2
926.885	21.44
927.314	21.41
927.743	21.5
928.171	21.14
928.6	21.51
929.028	21.92
929.457	21.74
929.885	21.26
930.314	21.57
930.742	21.23
931.17	21.78
931.599	21.16
932.027	21.56
932.455	21.24
932.884	21.7
933.312	21.48
933.74	21.29
934.168	22.09
934.596	22.19
935.025	21.79
935.453	21.82
935.881	21.23
936.309	21.9
936.737	21.39
937.165	21.93
937.593	21.74
938.021	21.9
938.449	21.72
938.876	21.53
939.304	21.63
939.732	21.88
940.16	21.95
940.588	21.89
941.015	22.03
941.443	21.7
941.871	22.26
942.298	21.88
942.726	21.87
943.154	21.51
943.581	21.93
944.009	21.83
944.436	21.6
944.864	21.81
945.291	21.54
945.718	21.08
946.146	21.36
946.573	21.21
947.001	21.85
947.428	21.61
947.855	22.1
948.282	21.74
948.71	21.74
949.137	21.89
949.564	21.63
949.991	21.55
950.418	21.76
950.845	22.33
951.272	21.95
951.699	21.73
952.126	22.12
952.553	22.16
952.98	21.86
953.407	21.83
953.834	22.61
954.261	21.93
954.688	21.72
955.114	21.92
955.541	22.19
955.968	21.95
956.395	22.12
956.821	22.11
957.248	22.15
957.674	22.05
958.101	21.72
958.528	22.13
958.954	22.04
959.381	22.37
959.807	22.16
960.234	22.01
960.66	21.98
961.086	22.2
961.513	21.7
961.939	22.12
962.365	22.47
962.792	22.04
963.218	22.01
963.644	22.65
964.07	21.85
964.496	22.17
964.923	22.28
965.349	22.15
965.775	22.44
966.201	22
966.627	22.05
967.053	22.34
967.479	22.18
967.905	22.16
968.331	22.12
968.756	22.19
969.182	22.46
969.608	22.28
970.034	22.19
970.46	22.51
970.885	22.55
971.311	22.04
971.737	22.27
972.162	22.44
972.588	22.04
973.014	22.44
973.439	22.33
973.865	22.25
974.29	22.31
974.716	22.43
975.141	22.51
975.567	22.8
975.992	22.43
976.417	22.69
976.843	22.32
977.268	22.68
977.693	22.66
978.119	22.55
978.544	22.61
978.969	22.7
979.394	22.58
979.819	22.67
980.244	22.72
980.669	22.86
981.095	22.44
981.52	22.83
981.945	22.7
982.369	23.15
982.794	22.7
983.219	22.95
983.644	22.45
984.069	22.81
984.494	22.61
984.919	22.67
985.343	22.58
985.768	22.74
986.193	22.83
986.618	22.71
987.042	22.76
987.467	22.52
987.891	22.63
988.316	22.74
988.741	22.77
989.165	22.84
989.59	22.8
990.014	23.01
990.438	22.62
990.863	22.85
991.287	23.27
991.712	22.75
992.136	23.09
992.56	23.04
992.984	22.78
993.409	22.8
993.833	23.04
994.257	22.88
994.681	22.88
995.105	23.43
995.529	23.27
995.953	23.2
996.377	23.14
996.801	22.82
997.225	22.87
997.649	23.12
998.073	23.16
998.497	23.08
998.921	22.94
999.345	23.41
999.769	23.46
1000.192	23.46
1000.616	23.41
1001.04	23.33
1001.464	23.58
1001.887	23.03
1002.311	23.24
1002.734	23.41
1003.158	23.33
1003.582	23.31
1004.005	23.77
1004.429	23.4
1004.852	23.14
1005.275	23.33
1005.699	23.42
1006.122	23.25
1006.546	23.17
1006.969	23.37
1007.392	23.52
1007.815	23.67
1008.239	23.47
1008.662	23.48
1009.085	23.71
1009.508	23.05
1009.931	23.49
1010.354	23.26
1010.778	23.66
1011.201	23.22
1011.624	23.59
1012.047	23.59
1012.469	23.95
1012.892	23.79
1013.315	23.56
1013.738	23.88
1014.161	23.72
1014.584	23.67
1015.007	23.08
1015.429	23.35
1015.852	23.49
1016.275	23.85
1016.697	23.86
1017.12	23.29
1017.543	23.72
1017.965	24
1018.388	23.72
1018.81	23.96
1019.233	23.88
1019.655	23.89
1020.078	23.99
1020.5	24.01
1020.922	23.63
1021.345	24.02
1021.767	23.82
1022.189	24.07
1022.612	24.24
1023.034	24.27
1023.456	24
1023.878	23.68
1024.301	24.03
1024.723	23.98
1025.145	23.93
1025.567	24.08
1025.989	24.03
1026.411	23.73
1026.833	24.01
1027.255	24.09
1027.677	23.43
1028.099	24.01
1028.52	23.38
1028.942	23.62
1029.364	24.45
1029.786	23.96
1030.208	23.76
1030.629	24.53
1031.051	24
1031.473	24.27
1031.894	23.8
1032.316	24.3
1032.738	24.25
1033.159	24.35
1033.581	23.98
1034.002	24.01
1034.424	24.74
1034.845	24.1
1035.267	24.49
1035.688	24.45
1036.109	24.56
1036.531	24.07
1036.952	24.14
1037.373	24.2
1037.794	24.38
1038.216	24.15
1038.637	24.5
1039.058	24.37
1039.479	24.61
1039.9	24.31
1040.321	24.49
1040.742	24.89
1041.163	24.2
1041.584	24.23
1042.005	24.41
1042.426	24.67
1042.847	24.69
1043.268	24.17
1043.689	24.93
1044.11	24.13
1044.53	24.67
1044.951	24.79
1045.372	24.05
1045.793	24.53
1046.213	24.39
1046.634	24.58
1047.055	24.54
1047.475	24.26
1047.896	24.69
1048.316	24.83
1048.737	24.94
1049.157	25.09
1049.578	24.73
1049.998	25.08
1050.419	24.62
1050.839	24.94
1051.259	24.54
1051.68	25.13
1052.1	24.62
1052.52	25.29
1052.94	25.43
1053.361	24.66
1053.781	24.61
1054.201	24.67
1054.621	24.75
1055.041	24.78
1055.461	25.2
1055.881	25.53
1056.301	24.42
1056.721	25.39
1057.141	24.41
1057.561	24.53
1057.981	24.93
1058.401	25.28
1058.82	25.03
1059.24	25
1059.66	24.65
1060.08	25.03
1060.499	24.34
1060.919	25.37
1061.339	24.82
1061.758	25.57
1062.178	25.62
1062.598	24.86
1063.017	24.68
1063.437	25.08
1063.856	25.57
1064.276	24.96
1064.695	25.39
1065.114	25.89
1065.534	25.36
1065.953	24.6
1066.372	25.9
1066.792	25.15
1067.211	25.23
1067.63	24.58
1068.049	26.1
1068.469	25.27
1068.888	25.6
1069.307	25.35
1069.726	24.77
1070.145	25.78
1070.564	25.02
1070.983	25.34
1071.402	25.64
1071.821	24.77
1072.24	25.33
1072.659	25.39
1073.078	24.9
1073.496	25.18
1073.915	25.33
1074.334	26.19
1074.753	25.81
1075.171	25.76
1075.59	25.15
1076.009	25.13
1076.427	24.95
1076.846	25.07
1077.265	25.47
1077.683	24.52
1078.102	25.62
1078.52	26.21
1078.939	25.25
1079.357	25.42
1079.776	25.86
1080.194	26.26
1080.612	24.33
1081.031	25.5
1081.449	24.86
1081.867	27.64
1082.285	25.38
1082.704	25.27
1083.122	25.63
1083.54	26.58
1083.958	25.47
1084.376	25.34
1084.794	25.79
1085.212	25.74
1085.63	26.16
1086.048	26.45
1086.466	26.89
1086.884	26.84
1087.302	25.61
1087.72	24.79
1088.138	26.12
1088.555	25.89
1088.973	26.04
1089.391	25.8
1089.809	25.21
1090.226	26.12
1090.644	25.17
1091.062	26.53
1091.479	26.04
1091.897	25.82
1092.314	25.76
1092.732	26.01
1093.15	25.76
1093.567	26.48
1093.984	26.24
1094.402	25.53
1094.819	26.11
1095.237	25.49
1095.654	26.71
1096.071	25.28
1096.488	25.74
1096.906	26.69
1097.323	26.69
1097.74	25.36
1098.157	26.02
1098.574	26.84
1098.991	24.66
1099.409	23.43
1099.826	25.77
1100.243	26.49
1100.66	27.14
1101.077	24.49
1101.494	26.98
1101.91	26.47
1102.327	26.32
1102.744	28.01
1103.161	26.56
1103.578	26.74
1103.994	28.25
1104.411	25.13
1104.828	25.39
1105.245	26.87
1105.661	26.87
1106.078	26.82
1106.494	27.3
1106.911	26.58
1107.328	25.29
1107.744	27.19
1108.161	26.67
1108.577	25.83
1108.993	26.97
1109.41	25.95
1109.826	28.47
1110.242	25.32
1110.659	26.14
1111.075	28.16
1111.491	27.22
1111.908	26.57
1112.324	26.99
1112.74	27.53
1113.156	27.33
1113.572	28.19
1113.988	25.56
1114.404	28.14
1114.82	24.17
1115.236	27.13
1115.652	27.31
1116.068	25.04
1116.484	27.2
1116.9	28.28
1117.316	28.18
1117.732	60.29
1118.147	37.8
1118.563	78.57
1118.979	268.75
