Data from JCR0023_Black1_Reflection_00001.txt Node
Date: Fri Jul 31 11:43:44 ACST 2020
User: Stacey Dix
Spectrometer: MAYP113282
Scans to average: 1
Trigger mode: 0
Integration Time (sec): 1.000000E-1
Electric dark correction enabled: true
Boxcar width: 0
XAxis mode: Wavelengths
Number of Pixels in Spectrum: 2068
>>>>>Begin Spectral Data<<<<<
198.791	-136.36
199.266	150
199.74	30
200.215	0
200.69	27.41
201.164	12.3
201.639	36.21
202.114	22.53
202.588	32.03
203.063	22.71
203.537	33.89
204.012	22.97
204.486	25.98
204.961	43.19
205.435	20.27
205.909	32.46
206.384	17.06
206.858	9.93
207.332	36.86
207.807	19.06
208.281	35.47
208.755	17.7
209.229	23.44
209.703	24.56
210.177	35.69
210.651	8.11
211.126	22.18
211.6	-4.72
212.074	29.21
212.548	27.72
213.021	18.48
213.495	33.16
213.969	30.66
214.443	16.59
214.917	27.09
215.391	28.86
215.864	1.26
216.338	18.46
216.812	24.29
217.286	25.71
217.759	24.32
218.233	23.48
218.706	14.47
219.18	9.31
219.654	12
220.127	17.93
220.6	17.05
221.074	27.61
221.547	16.36
222.021	17.15
222.494	20.64
222.967	24.56
223.441	17.6
223.914	17.17
224.387	14.47
224.86	19.55
225.334	22.8
225.807	16.52
226.28	15
226.753	16.28
227.226	11.01
227.699	20.12
228.172	17.26
228.645	17.13
229.118	12.47
229.591	15.66
230.064	14.52
230.537	18.54
231.01	17.5
231.482	15.18
231.955	12.86
232.428	15.53
232.901	12.75
233.373	12.49
233.846	15.03
234.319	14.03
234.791	13.5
235.264	13.94
235.736	13
236.209	14.51
236.681	16.11
237.154	15.36
237.626	14.92
238.099	14.9
238.571	12.28
239.044	14.76
239.516	14.62
239.988	12.02
240.46	14.19
240.933	11.77
241.405	13.75
241.877	12.47
242.349	13
242.821	13.31
243.293	12.67
243.765	12.43
244.237	14.2
244.71	14.17
245.181	14.01
245.653	12.85
246.125	12.99
246.597	13.55
247.069	12.32
247.541	12.63
248.013	13.35
248.485	12.99
248.956	12.86
249.428	11.5
249.9	12.41
250.371	11.18
250.843	12.87
251.315	11.56
251.786	12.24
252.258	11.74
252.729	13.16
253.201	12.56
253.672	10.87
254.144	12.11
254.615	11.09
255.086	12.69
255.558	11.88
256.029	11.1
256.5	12.01
256.972	11.67
257.443	12.26
257.914	11.5
258.385	11.56
258.856	11.74
259.327	11.58
259.799	11.06
260.27	11.41
260.741	11.74
261.212	10.75
261.683	11.58
262.154	10.79
262.624	10.93
263.095	11.58
263.566	11.18
264.037	11.44
264.508	10.43
264.979	11.9
265.449	10.96
265.92	11.12
266.391	11.44
266.861	10.88
267.332	11.65
267.803	12.27
268.273	11.04
268.744	11.55
269.214	11.13
269.685	11.21
270.155	11.33
270.626	10.95
271.096	11.01
271.566	11.54
272.037	11.13
272.507	11.72
272.977	11.35
273.448	11.39
273.918	9.98
274.388	11.59
274.858	10.84
275.328	10.71
275.798	11.01
276.268	10.68
276.738	10.57
277.208	11.71
277.678	11.84
278.148	10.73
278.618	10.68
279.088	11.66
279.558	11.08
280.028	11.02
280.498	10.85
280.968	10.33
281.437	10
281.907	10.46
282.377	11.09
282.847	10.31
283.316	10.43
283.786	10.46
284.255	11.27
284.725	9.72
285.194	10.87
285.664	10.42
286.133	9.92
286.603	10.05
287.072	10.77
287.542	11.28
288.011	10.48
288.48	9.91
288.95	10.09
289.419	10.59
289.888	10.72
290.357	11.3
290.827	10.48
291.296	10.74
291.765	9.69
292.234	9.86
292.703	10.31
293.172	11.73
293.641	10.14
294.11	10.47
294.579	10.71
295.048	10.24
295.517	11.01
295.986	11
296.455	10.37
296.923	11.05
297.392	9.93
297.861	10.61
298.33	10.28
298.798	10.26
299.267	11.24
299.736	10.84
300.204	10.4
300.673	10.24
301.141	10.46
301.61	10.29
302.079	9.82
302.547	10.3
303.015	9.02
303.484	10.88
303.952	10.63
304.421	10.12
304.889	11.13
305.357	10.04
305.825	10.56
306.294	10
306.762	10.9
307.23	11.03
307.698	11.6
308.166	11.05
308.634	10.34
309.103	10.08
309.571	10.56
310.039	10.55
310.507	10.45
310.975	10.18
311.442	10.32
311.91	9.25
312.378	10.46
312.846	10.46
313.314	10.5
313.782	9.92
314.249	10.5
314.717	10.84
315.185	9.85
315.652	10.1
316.12	9.76
316.588	9.81
317.055	10.81
317.523	11.32
317.99	11.04
318.458	10.58
318.925	10.5
319.393	10
319.86	10.37
320.328	10.16
320.795	9.6
321.262	10.82
321.73	9.86
322.197	10.08
322.664	10.46
323.131	10.6
323.598	11.6
324.066	10.32
324.533	10.22
325	11.54
325.467	11.35
325.934	10.18
326.401	11.21
326.868	10.67
327.335	10.34
327.802	10.81
328.269	10.69
328.735	11.71
329.202	11
329.669	10.81
330.136	10.7
330.603	10.79
331.069	11.01
331.536	10.2
332.003	10.95
332.469	11.03
332.936	11.34
333.402	11.06
333.869	10.67
334.336	10.59
334.802	11.04
335.268	10.4
335.735	10.29
336.201	12.1
336.668	11.26
337.134	10.14
337.6	10.08
338.067	9.98
338.533	10.4
338.999	11.02
339.465	10.54
339.931	10.43
340.398	10.91
340.864	10.54
341.33	10.34
341.796	9.94
342.262	10.55
342.728	10.54
343.194	10.47
343.66	9.38
344.126	10.52
344.592	10.41
345.057	10.29
345.523	10.41
345.989	10.04
346.455	9.8
346.921	11.83
347.386	11.14
347.852	10.5
348.318	10.28
348.783	11.39
349.249	9.94
349.714	9.95
350.18	10.45
350.645	10.97
351.111	10.16
351.576	9.7
352.042	10.39
352.507	10.47
352.973	10.63
353.438	9.44
353.903	11.07
354.369	9.82
354.834	10.14
355.299	11.39
355.764	10.28
356.229	9.88
356.695	10.4
357.16	10.02
357.625	9.97
358.09	10.11
358.555	9.51
359.02	10.28
359.485	10.25
359.95	9.08
360.415	9.76
360.879	11.52
361.344	9.89
361.809	11.32
362.274	9.11
362.739	10.82
363.203	9.62
363.668	9.4
364.133	9.98
364.597	10.33
365.062	10.27
365.527	10.83
365.991	10.46
366.456	9.5
366.92	11.28
367.385	8.86
367.849	11.14
368.314	9.35
368.778	11.21
369.242	11.46
369.707	11.01
370.171	10.17
370.635	12.02
371.1	9.59
371.564	10.22
372.028	11.32
372.492	10.66
372.956	10.89
373.42	11.45
373.884	9.25
374.348	10.33
374.812	9.98
375.276	10.39
375.74	9.19
376.204	10.4
376.668	10.52
377.132	11.33
377.596	9.46
378.06	10.26
378.524	9.72
378.987	10.37
379.451	10.48
379.915	10.2
380.378	10.06
380.842	10.33
381.306	10.69
381.769	10.29
382.233	11
382.696	10.64
383.16	10.13
383.623	9.54
384.087	9.82
384.55	9.87
385.014	10.37
385.477	10.86
385.94	10.01
386.404	9.46
386.867	11.2
387.33	10.88
387.793	11.72
388.256	9.84
388.72	10.73
389.183	9.58
389.646	10.79
390.109	10.56
390.572	11.27
391.035	10.74
391.498	10.02
391.961	10.28
392.424	9.82
392.887	10.43
393.35	8.87
393.812	10.69
394.275	9.57
394.738	10.57
395.201	10.52
395.664	9.56
396.126	11.4
396.589	11.28
397.052	9.9
397.514	10.21
397.977	10.12
398.439	10.61
398.902	11.05
399.364	10.48
399.827	9.91
400.289	10.36
400.752	10.12
401.214	10.71
401.676	9.05
402.139	9.74
402.601	9.81
403.063	10.17
403.525	10.6
403.988	11.09
404.45	9.07
404.912	9.44
405.374	9.51
405.836	9.35
406.298	10.22
406.76	9.31
407.222	9.66
407.684	10.15
408.146	9.65
408.608	9.5
409.07	10.09
409.532	9.46
409.994	10.32
410.456	9.86
410.917	9.95
411.379	11.07
411.841	10.36
412.303	10.22
412.764	9.99
413.226	10.09
413.687	9.79
414.149	9.93
414.611	10.39
415.072	10.78
415.534	11.22
415.995	10.02
416.457	10.25
416.918	9.73
417.379	10.83
417.841	9.83
418.302	10.26
418.763	9.9
419.225	10.42
419.686	10.72
420.147	10.01
420.608	10.62
421.069	10.69
421.53	10.48
421.991	10.79
422.453	10.37
422.914	11.31
423.375	9.04
423.836	10.57
424.297	9.59
424.757	10.77
425.218	10.13
425.679	11.93
426.14	10.19
426.601	10.73
427.062	9.9
427.522	9.54
427.983	11.4
428.444	11.63
428.904	9.72
429.365	10.74
429.826	11.02
430.286	10.77
430.747	11.13
431.207	12
431.668	11.05
432.128	11.66
432.589	11.18
433.049	8.04
433.509	10.44
433.97	10.39
434.43	11.77
434.89	9.7
435.351	9.89
435.811	10.84
436.271	10.68
436.731	12.42
437.191	10.95
437.651	11.33
438.112	11.58
438.572	10.62
439.032	10.78
439.492	9.41
439.952	12.26
440.412	10.04
440.871	10.33
441.331	10.01
441.791	11.38
442.251	11.53
442.711	10.21
443.171	11.15
443.63	10.58
444.09	10.32
444.55	10.45
445.009	11.68
445.469	9.39
445.929	10.44
446.388	10.37
446.848	11.21
447.307	11.73
447.767	11.2
448.226	10.89
448.686	12.23
449.145	9.5
449.604	11.67
450.064	11.07
450.523	11.29
450.982	10.58
451.442	11.05
451.901	11.35
452.36	9.22
452.819	9.52
453.278	11.47
453.737	11.45
454.197	11.07
454.656	10.79
455.115	9.82
455.574	12.17
456.033	11.36
456.492	9.16
456.95	10.53
457.409	9.32
457.868	10.24
458.327	13.25
458.786	9.93
459.245	11.25
459.703	9.98
460.162	12.8
460.621	10.22
461.079	11.69
461.538	11.54
461.997	11.94
462.455	9.47
462.914	11.81
463.372	9.5
463.831	8.92
464.289	10.85
464.748	12.97
465.206	11.24
465.664	10.61
466.123	9.98
466.581	9.96
467.039	10.85
467.497	9.93
467.956	11.73
468.414	12.69
468.872	10.73
469.33	10.69
469.788	11.87
470.246	11.96
470.704	11.53
471.162	9.96
471.62	12.67
472.078	9.79
472.536	9.86
472.994	11.8
473.452	9.62
473.91	11.28
474.368	10.52
474.826	12.52
475.283	10.85
475.741	10.16
476.199	12.59
476.656	13.34
477.114	9.7
477.572	10.16
478.029	12.75
478.487	10.75
478.944	11.51
479.402	12.15
479.859	10.78
480.317	10.65
480.774	11.87
481.232	10.83
481.689	11.91
482.146	10.68
482.604	11.06
483.061	11.9
483.518	10.07
483.975	10.05
484.433	12.72
484.89	12.11
485.347	10.62
485.804	11.85
486.261	11.66
486.718	12.84
487.175	10.32
487.632	10.93
488.089	10.72
488.546	12.86
489.003	11.55
489.46	11.33
489.917	13.57
490.373	12.26
490.83	11.16
491.287	11.72
491.744	9.98
492.2	10.97
492.657	11.85
493.114	10.92
493.57	10.65
494.027	12.95
494.484	12.42
494.94	11.41
495.397	11.31
495.853	12.45
496.31	11.87
496.766	12.29
497.222	12.87
497.679	10.03
498.135	12.56
498.591	10.38
499.048	11.56
499.504	12.24
499.96	12.16
500.416	11.11
500.872	11.35
501.329	11.39
501.785	11.89
502.241	11.61
502.697	12.32
503.153	11.58
503.609	12.4
504.065	11.49
504.521	11.65
504.977	12.31
505.432	10.11
505.888	11.01
506.344	10.44
506.8	12.3
507.256	11.9
507.711	11.96
508.167	11.85
508.623	11.47
509.078	12.6
509.534	10.39
509.99	12.19
510.445	12.57
510.901	11.32
511.356	12.32
511.812	9.93
512.267	10.63
512.722	11.25
513.178	12.56
513.633	11.99
514.089	13.08
514.544	11.9
514.999	11.67
515.454	10.86
515.91	12.65
516.365	11.11
516.82	11.18
517.275	11.97
517.73	12.52
518.185	11.01
518.64	11.63
519.095	11.64
519.55	11.1
520.005	11.61
520.46	11.25
520.915	11.19
521.37	11.6
521.825	11.94
522.28	12.11
522.734	12.76
523.189	12.05
523.644	12.13
524.099	11.54
524.553	11.66
525.008	11.18
525.462	11.89
525.917	12.37
526.372	11.01
526.826	13.2
527.281	11.85
527.735	12.04
528.19	11.57
528.644	12.26
529.098	12.52
529.553	12.53
530.007	11.71
530.461	11.94
530.916	10.99
531.37	12.12
531.824	14.33
532.278	11.98
532.732	11.56
533.186	11.03
533.641	11.53
534.095	12.81
534.549	9.35
535.003	12.6
535.457	12.1
535.911	12.35
536.365	12.41
536.818	10.78
537.272	12.8
537.726	14.07
538.18	11.78
538.634	11.95
539.087	11.96
539.541	12.36
539.995	12.04
540.449	13.27
540.902	13.39
541.356	11.61
541.809	11.58
542.263	10.97
542.716	12.64
543.17	12.68
543.623	11.39
544.077	12.53
544.53	11.24
544.984	12.72
545.437	12.33
545.89	12.18
546.344	12.53
546.797	14.02
547.25	12.99
547.703	12.74
548.157	12.05
548.61	14.56
549.063	12.6
549.516	11.46
549.969	12.15
550.422	11.87
550.875	13.32
551.328	12.37
551.781	14.83
552.234	14.22
552.687	13.41
553.14	12.24
553.592	12.27
554.045	13.1
554.498	12.71
554.951	12.94
555.404	13.76
555.856	12.98
556.309	13.34
556.762	13.93
557.214	12.87
557.667	14.29
558.119	12.9
558.572	12.7
559.024	12.98
559.477	14.01
559.929	13.57
560.382	13.84
560.834	13.82
561.286	12.31
561.739	12.97
562.191	13.02
562.643	12.8
563.095	12.99
563.548	13.92
564	12.95
564.452	13.33
564.904	13.24
565.356	13
565.808	13.33
566.26	13.53
566.712	12.27
567.164	13.62
567.616	13.13
568.068	13.97
568.52	14.59
568.972	13.83
569.424	13
569.876	14.3
570.327	12.95
570.779	13.13
571.231	13.59
571.682	13.1
572.134	13.11
572.586	14.28
573.037	13.38
573.489	12.51
573.941	14.1
574.392	13.16
574.844	12.53
575.295	14.07
575.746	13.09
576.198	13.35
576.649	13.49
577.101	12.95
577.552	13.1
578.003	13.82
578.454	13.49
578.906	13.42
579.357	13.22
579.808	13.85
580.259	13.4
580.71	14.27
581.161	12.87
581.612	13.88
582.064	12.51
582.515	14.83
582.965	13.29
583.416	14.07
583.867	13.59
584.318	14.19
584.769	13.96
585.22	13.82
585.671	13.89
586.122	14.05
586.572	13.22
587.023	14.09
587.474	13.63
587.924	15.18
588.375	13.55
588.826	13.87
589.276	14.25
589.727	13.05
590.177	13.32
590.628	15.14
591.078	13.82
591.529	15.09
591.979	13.96
592.429	14.06
592.88	15.12
593.33	13.64
593.78	14.18
594.231	14.31
594.681	12.69
595.131	13.89
595.581	14.25
596.031	13.83
596.481	13.78
596.932	14.89
597.382	14.1
597.832	14.27
598.282	13.6
598.732	15.24
599.182	13.56
599.632	14.21
600.081	13.36
600.531	14.93
600.981	14.68
601.431	14.51
601.881	14.14
602.33	15.14
602.78	14.93
603.23	14.14
603.679	14.66
604.129	15.18
604.579	14.54
605.028	13.86
605.478	14.22
605.927	15.1
606.377	15.09
606.826	14.84
607.276	14.52
607.725	15.19
608.175	14.33
608.624	14.39
609.073	14.85
609.522	14.04
609.972	13.97
610.421	14.55
610.87	14.3
611.319	14.1
611.768	14.97
612.218	14.8
612.667	16.08
613.116	14.59
613.565	14.55
614.014	14.32
614.463	14.75
614.912	14.74
615.361	15.74
615.81	14.97
616.258	14.55
616.707	15.27
617.156	15.27
617.605	14.18
618.054	15.01
618.502	15.2
618.951	15.01
619.4	14.94
619.848	14.82
620.297	14.48
620.745	16.16
621.194	14.21
621.642	15.64
622.091	13.33
622.539	14.79
622.988	13.68
623.436	15.57
623.885	14.71
624.333	14.33
624.781	14.49
625.23	15.53
625.678	14.98
626.126	15.23
626.574	14.78
627.022	14.51
627.471	15.71
627.919	14.54
628.367	14.55
628.815	14.35
629.263	14.52
629.711	14.77
630.159	15.19
630.607	14.53
631.055	14.7
631.503	15.04
631.95	14.98
632.398	14.82
632.846	15.14
633.294	14.54
633.742	14.67
634.189	15.66
634.637	15.63
635.085	15.04
635.532	14.79
635.98	15.01
636.427	14.69
636.875	15.36
637.323	15.19
637.77	14.77
638.217	15.41
638.665	15.17
639.112	15.46
639.56	14.24
640.007	15.5
640.454	15.66
640.902	15.07
641.349	15.53
641.796	15.47
642.243	15.97
642.69	14.61
643.138	14.75
643.585	15.02
644.032	14.98
644.479	15.21
644.926	14.6
645.373	14.82
645.82	15.5
646.267	15.45
646.714	14.85
647.161	15.06
647.607	15.11
648.054	15.47
648.501	15.45
648.948	15.31
649.395	15.55
649.841	15.36
650.288	15.41
650.735	15.79
651.181	15.1
651.628	15.32
652.075	16.08
652.521	15.82
652.968	15.4
653.414	15.15
653.861	15.88
654.307	16.08
654.753	15.37
655.2	15.78
655.646	15.84
656.092	15.81
656.539	16.13
656.985	16.05
657.431	16.07
657.877	15.47
658.324	16.66
658.77	16.7
659.216	15.48
659.662	16.02
660.108	15.87
660.554	16.07
661	15.38
661.446	16.48
661.892	16.12
662.338	16.02
662.784	15.92
663.23	15.51
663.675	16.04
664.121	17.37
664.567	16.43
665.013	16.14
665.458	16.7
665.904	15.98
666.35	15.93
666.795	16.1
667.241	16.55
667.687	16.5
668.132	16.67
668.578	16.11
669.023	16.68
669.469	16.48
669.914	16.58
670.359	17.62
670.805	16.83
671.25	16.19
671.695	16.33
672.141	16.94
672.586	17.51
673.031	17.2
673.476	16.43
673.922	16.51
674.367	17.39
674.812	16.86
675.257	17.15
675.702	17.22
676.147	16.77
676.592	16.47
677.037	16.64
677.482	16.79
677.927	17.16
678.372	16.81
678.817	16.96
679.261	16.96
679.706	17.5
680.151	17.02
680.596	16.98
681.04	16.96
681.485	17.21
681.93	17.48
682.374	17.38
682.819	18.4
683.264	17.22
683.708	17.46
684.153	16.87
684.597	17.17
685.042	17.09
685.486	17.6
685.93	17.37
686.375	17.75
686.819	17.32
687.263	17.32
687.708	17.07
688.152	17.61
688.596	18.08
689.04	17.44
689.485	17.5
689.929	17.84
690.373	17.38
690.817	17.74
691.261	17.19
691.705	17.8
692.149	17.77
692.593	17.41
693.037	17.87
693.481	17.24
693.925	17.83
694.369	17.62
694.812	17.84
695.256	17.74
695.7	17.88
696.144	17.66
696.587	17.75
697.031	18.15
697.475	18.02
697.918	18.38
698.362	18.06
698.806	18.1
699.249	17.9
699.693	17.55
700.136	18.3
700.58	17.67
701.023	17.49
701.466	17.94
701.91	18.48
702.353	18.03
702.796	18.15
703.24	17.5
703.683	17.83
704.126	18.21
704.569	18.66
705.013	18.09
705.456	18.04
705.899	17.89
706.342	17.68
706.785	17.91
707.228	18.64
707.671	18.28
708.114	18.26
708.557	17.77
709	18.6
709.443	18.51
709.886	17.9
710.328	18.8
710.771	17.96
711.214	18.17
711.657	18.19
712.099	18.28
712.542	18.77
712.985	18.67
713.427	18.19
713.87	18.47
714.313	18.64
714.755	18.71
715.198	18.01
715.64	18.11
716.083	18.79
716.525	18.48
716.967	18.13
717.41	19.34
717.852	18.7
718.295	18.73
718.737	18.45
719.179	19.06
719.621	18.83
720.063	18.33
720.506	18.73
720.948	18.45
721.39	18.49
721.832	18.68
722.274	18.46
722.716	19.4
723.158	18.44
723.6	18.84
724.042	18.84
724.484	18.15
724.926	18.75
725.368	18.56
725.81	18.41
726.251	19
726.693	18.62
727.135	19.16
727.577	18.65
728.018	18.29
728.46	18.98
728.902	19.36
729.343	18.8
729.785	18.95
730.226	18.78
730.668	19.02
731.109	18.67
731.551	19.37
731.992	19.04
732.434	18.55
732.875	19.28
733.316	19.18
733.758	19.21
734.199	18.77
734.64	18.86
735.081	19.29
735.523	19.59
735.964	18.79
736.405	19.7
736.846	18.91
737.287	19.49
737.728	18.54
738.169	19.2
738.61	18.76
739.051	18.92
739.492	19.77
739.933	19.57
740.374	19.49
740.815	18.96
741.256	19.66
741.696	19.68
742.137	19.62
742.578	19.16
743.019	19.7
743.459	18.8
743.9	19.52
744.341	18.85
744.781	19.5
745.222	19.44
745.662	19.24
746.103	18.69
746.543	19.25
746.984	19.67
747.424	18.78
747.865	19.07
748.305	19.88
748.745	19.52
749.186	19.92
749.626	19.87
750.066	18.73
750.506	18.83
750.947	19.43
751.387	20.1
751.827	19.29
752.267	19.12
752.707	20.52
753.147	20.03
753.587	19.53
754.027	19.4
754.467	19.74
754.907	20.15
755.347	20.79
755.787	19.46
756.227	19.53
756.667	19.4
757.107	20.24
757.546	19.4
757.986	19.65
758.426	20.16
758.865	19.47
759.305	20.14
759.745	19.77
760.184	19.18
760.624	20.29
761.063	20.18
761.503	19.93
761.943	19.71
762.382	19.84
762.821	19.99
763.261	19.81
763.7	19.53
764.14	19.53
764.579	20.44
765.018	19.83
765.457	19.98
765.897	20.33
766.336	20.64
766.775	19.6
767.214	19.76
767.653	20.1
768.092	19.8
768.531	20.44
768.97	20.27
769.409	19.75
769.848	20.13
770.287	20.19
770.726	19.81
771.165	20.64
771.604	20.37
772.043	20.12
772.482	20.31
772.92	19.91
773.359	19.71
773.798	21.02
774.237	20.38
774.675	20.31
775.114	20.46
775.553	20.29
775.991	19.98
776.43	20.65
776.868	20.56
777.307	20.39
777.745	20.93
778.184	20.21
778.622	20.51
779.06	20.24
779.499	20.22
779.937	20.89
780.375	20.84
780.814	20.6
781.252	19.97
781.69	20.87
782.128	19.98
782.566	20.85
783.004	19.79
783.443	20.87
783.881	20.81
784.319	20.39
784.757	20.35
785.195	20.48
785.633	20.84
786.071	20.12
786.508	21.3
786.946	20.72
787.384	20.46
787.822	20.91
788.26	20.44
788.697	20.51
789.135	20.69
789.573	21.12
790.011	20.71
790.448	20.53
790.886	21.04
791.323	20.32
791.761	20.76
792.198	20.5
792.636	21.07
793.073	20.74
793.511	20.85
793.948	21.23
794.386	21.02
794.823	21.03
795.26	21.09
795.698	20.72
796.135	21.66
796.572	20.82
797.009	20.52
797.446	21.22
797.884	20.91
798.321	21.37
798.758	20.5
799.195	21.34
799.632	20.67
800.069	21.25
800.506	21.66
800.943	21.22
801.38	21.18
801.817	21.65
802.254	21.06
802.69	21.66
803.127	20.68
803.564	21.92
804.001	20.62
804.438	21.32
804.874	20.85
805.311	21.19
805.748	21.26
806.184	21.3
806.621	21.23
807.057	21.33
807.494	21.31
807.93	22.07
808.367	21.6
808.803	21.57
809.24	21.04
809.676	21.77
810.112	20.83
810.549	21.85
810.985	22.05
811.421	21.29
811.857	21.42
812.294	21.26
812.73	21.74
813.166	21.35
813.602	21.52
814.038	21.43
814.474	21.29
814.91	21.8
815.346	21.58
815.782	21.74
816.218	22
816.654	21.8
817.09	21.8
817.526	21.76
817.962	21.21
818.398	22.09
818.833	21.59
819.269	22.1
819.705	22.09
820.141	21.79
820.576	21.21
821.012	21.75
821.447	21.55
821.883	22.15
822.319	21.94
822.754	21.52
823.19	21.8
823.625	22.23
824.061	22.2
824.496	22.12
824.931	22.18
825.367	21.76
825.802	21.59
826.237	22.29
826.673	22.02
827.108	21.93
827.543	21.98
827.978	22.33
828.413	22.14
828.849	22.62
829.284	22.44
829.719	21.87
830.154	22.2
830.589	22
831.024	22.51
831.459	22.37
831.894	21.76
832.329	22.4
832.763	22.33
833.198	22.19
833.633	22.75
834.068	22.7
834.503	22.37
834.937	22.35
835.372	22.57
835.807	22.61
836.241	22.42
836.676	22.26
837.111	22.89
837.545	22.29
837.98	22.82
838.414	22.17
838.849	22.94
839.283	22.66
839.717	22.41
840.152	22.92
840.586	22.81
841.021	23.15
841.455	23.03
841.889	22.87
842.323	22.77
842.758	22.48
843.192	22.6
843.626	22.58
844.06	22.61
844.494	22.92
844.928	22.68
845.362	22.47
845.796	22.56
846.23	22.68
846.664	22.82
847.098	22.64
847.532	22.97
847.966	22.16
848.4	22.83
848.834	23.24
849.267	23.15
849.701	22.88
850.135	22.75
850.569	22.66
851.002	22.78
851.436	23.18
851.87	22.57
852.303	22.63
852.737	22.74
853.17	22.94
853.604	23.06
854.037	23.06
854.471	23.39
854.904	23.09
855.337	23
855.771	23.18
856.204	23.66
856.637	23.34
857.071	23.82
857.504	23.27
857.937	23.29
858.37	23.33
858.804	23.22
859.237	23.49
859.67	23.27
860.103	23.25
860.536	23.39
860.969	23.3
861.402	23.39
861.835	23.52
862.268	23.5
862.701	23.53
863.134	23.05
863.566	23.65
863.999	23.5
864.432	23.26
864.865	23.29
865.298	23.54
865.73	23.57
866.163	23.46
866.596	23.87
867.028	23.61
867.461	24.21
867.893	23.51
868.326	24.07
868.758	23.36
869.191	23.7
869.623	23.44
870.056	24.27
870.488	23.48
870.92	24.11
871.353	23.78
871.785	23.97
872.217	23.79
872.65	23.77
873.082	24.05
873.514	23.97
873.946	24.5
874.378	23.89
874.81	24.1
875.243	23.54
875.675	23.92
876.107	23.86
876.539	24.08
876.971	24.1
877.403	24.37
877.834	23.75
878.266	24.5
878.698	24.21
879.13	24.21
879.562	24.11
879.994	24.01
880.425	23.75
880.857	24.32
881.289	23.86
881.72	24.09
882.152	24.47
882.584	24.26
883.015	23.78
883.447	24.29
883.878	24.33
884.31	24.23
884.741	23.73
885.173	24.41
885.604	24.24
886.035	24.45
886.467	24.4
886.898	23.91
887.329	24.4
887.76	24.49
888.192	24.96
888.623	24.39
889.054	24.07
889.485	24.46
889.916	24.77
890.347	24.72
890.778	24.67
891.209	24.67
891.64	24.35
892.071	24.41
892.502	24.7
892.933	24.53
893.364	25.09
893.795	24.6
894.226	24.88
894.657	24.07
895.087	24.92
895.518	24.89
895.949	24.32
896.38	24.66
896.81	24.47
897.241	24.83
897.671	24.89
898.102	24.72
898.533	24.67
898.963	25.1
899.394	24.57
899.824	25.11
900.254	24.79
900.685	25.19
901.115	24.86
901.546	24.96
901.976	24.93
902.406	24.88
902.836	24.75
903.267	24.71
903.697	24.78
904.127	24.69
904.557	25.23
904.987	24.95
905.417	25.47
905.847	25.29
906.277	25.15
906.707	25.06
907.137	25.39
907.567	25.47
907.997	25.11
908.427	25.53
908.857	24.95
909.287	25.22
909.717	25.38
910.146	25.18
910.576	25.59
911.006	25.48
911.436	25.2
911.865	25.31
912.295	25.49
912.724	25.63
913.154	25.45
913.584	25.36
914.013	25.39
914.443	25.24
914.872	25.39
915.302	25.49
915.731	25.46
916.16	25.67
916.59	25.75
917.019	25.61
917.448	26.06
917.878	25.53
918.307	25.66
918.736	25.58
919.165	25.98
919.594	25.93
920.023	25.53
920.452	26.2
920.882	26.38
921.311	26.03
921.74	25.86
922.169	25.76
922.597	25.98
923.026	25.97
923.455	25.88
923.884	26.31
924.313	26.2
924.742	26.01
925.171	26.35
925.599	26.04
926.028	26.17
926.457	26.09
926.885	26.08
927.314	26.25
927.743	26.26
928.171	26.47
928.6	26.09
929.028	26.77
929.457	26.59
929.885	26.72
930.314	26.48
930.742	26.15
931.17	26.31
931.599	26.08
932.027	26.62
932.455	26.11
932.884	26.45
933.312	25.62
933.74	26.2
934.168	26.62
934.596	26.56
935.025	26.39
935.453	26.25
935.881	26.4
936.309	26.8
936.737	26.03
937.165	26.69
937.593	26.92
938.021	26.51
938.449	25.92
938.876	25.92
939.304	26.4
939.732	26.15
940.16	27.12
940.588	26.1
941.015	26.97
941.443	26.23
941.871	26.73
942.298	26.33
942.726	26.51
943.154	26.7
943.581	26.72
944.009	26.71
944.436	26.55
944.864	26.3
945.291	26.17
945.718	26.75
946.146	27.14
946.573	26.56
947.001	26.91
947.428	26.76
947.855	26.64
948.282	26.75
948.71	26.43
949.137	27.01
949.564	26.49
949.991	26.68
950.418	27.05
950.845	27.23
951.272	26.59
951.699	26.96
952.126	27.26
952.553	27.44
952.98	27.34
953.407	27.35
953.834	27.46
954.261	27.84
954.688	27.02
955.114	27.09
955.541	27.31
955.968	26.9
956.395	27.53
956.821	27.05
957.248	27.28
957.674	27.24
958.101	27.04
958.528	27.44
958.954	27.27
959.381	27.43
959.807	27.21
960.234	27.53
960.66	27.56
961.086	27.61
961.513	27.51
961.939	27.48
962.365	28.12
962.792	27.37
963.218	27.17
963.644	27.78
964.07	27.45
964.496	27.79
964.923	27.91
965.349	27.63
965.775	28.07
966.201	27.52
966.627	27.48
967.053	28.2
967.479	28.02
967.905	28.05
968.331	27.7
968.756	27.83
969.182	27.58
969.608	27.66
970.034	27.57
970.46	28.15
970.885	27.99
971.311	27.97
971.737	27.91
972.162	28.06
972.588	27.9
973.014	27.96
973.439	28.55
973.865	28.17
974.29	28.4
974.716	28.3
975.141	28.02
975.567	28.48
975.992	28.41
976.417	28.56
976.843	28.28
977.268	28.4
977.693	28.23
978.119	28.27
978.544	28.33
978.969	28.32
979.394	28.47
979.819	28.6
980.244	28.44
980.669	28.75
981.095	28.69
981.52	28.38
981.945	28.7
982.369	28.87
982.794	28.47
983.219	28.7
983.644	28.64
984.069	28.66
984.494	28.75
984.919	28.32
985.343	28.68
985.768	28.65
986.193	28.84
986.618	29
987.042	28.83
987.467	28.5
987.891	28.88
988.316	28.85
988.741	29.15
989.165	29.11
989.59	28.59
990.014	29.15
990.438	28.74
990.863	28.82
991.287	29.06
991.712	28.82
992.136	29.16
992.56	29.31
992.984	29.23
993.409	28.84
993.833	29.04
994.257	29.29
994.681	29.09
995.105	28.94
995.529	29.02
995.953	29.29
996.377	29.46
996.801	29.28
997.225	29.43
997.649	29.79
998.073	29.17
998.497	29.47
998.921	29.55
999.345	29.68
999.769	29.43
1000.192	29.53
1000.616	29.88
1001.04	29.71
1001.464	29.87
1001.887	29.86
1002.311	29.84
1002.734	29.81
1003.158	30
1003.582	29.76
1004.005	29.82
1004.429	29.66
1004.852	29.89
1005.275	29.56
1005.699	30.01
1006.122	29.63
1006.546	29.88
1006.969	29.85
1007.392	30.08
1007.815	29.74
1008.239	29.66
1008.662	29.72
1009.085	29.66
1009.508	30.42
1009.931	30.36
1010.354	29.85
1010.778	30.36
1011.201	29.69
1011.624	29.79
1012.047	30.19
1012.469	30.21
1012.892	30.14
1013.315	30.27
1013.738	30
1014.161	30.55
1014.584	30.69
1015.007	30.13
1015.429	30.48
1015.852	30.19
1016.275	30.3
1016.697	30.53
1017.12	30.52
1017.543	30.42
1017.965	30.72
1018.388	30.78
1018.81	30.82
1019.233	30.68
1019.655	30.7
1020.078	30.68
1020.5	30.2
1020.922	30.88
1021.345	30.98
1021.767	30.85
1022.189	30.58
1022.612	31.2
1023.034	30.52
1023.456	31.13
1023.878	30.88
1024.301	30.52
1024.723	30.91
1025.145	31.16
1025.567	30.74
1025.989	31.08
1026.411	30.81
1026.833	30.86
1027.255	31.02
1027.677	30.93
1028.099	30.65
1028.52	30.72
1028.942	30.4
1029.364	30.73
1029.786	30.66
1030.208	31.13
1030.629	30.84
1031.051	31.31
1031.473	31.37
1031.894	31.24
1032.316	31.65
1032.738	31.46
1033.159	31.16
1033.581	31.61
1034.002	30.7
1034.424	31.75
1034.845	31.27
1035.267	31.3
1035.688	31.14
1036.109	31.48
1036.531	31.56
1036.952	30.91
1037.373	31.41
1037.794	31.39
1038.216	30.77
1038.637	31.56
1039.058	31.79
1039.479	31.46
1039.9	31.18
1040.321	31.71
1040.742	31.55
1041.163	31.38
1041.584	31.69
1042.005	30.93
1042.426	31.82
1042.847	31.43
1043.268	31.42
1043.689	31.24
1044.11	31.38
1044.53	31.23
1044.951	31.42
1045.372	32.11
1045.793	31.83
1046.213	32.02
1046.634	31.7
1047.055	32.34
1047.475	31.6
1047.896	32.24
1048.316	31.42
1048.737	32.23
1049.157	32.39
1049.578	31.93
1049.998	31.5
1050.419	32.57
1050.839	32.13
1051.259	31.6
1051.68	32.25
1052.1	32.22
1052.52	32.93
1052.94	32.17
1053.361	32.25
1053.781	31.77
1054.201	32.35
1054.621	32.32
1055.041	32.11
1055.461	31.56
1055.881	32.55
1056.301	32.68
1056.721	31.72
1057.141	32.66
1057.561	32.66
1057.981	32.49
1058.401	31.93
1058.82	31.85
1059.24	32.63
1059.66	32.94
1060.08	32.37
1060.499	31.68
1060.919	33.22
1061.339	32.54
1061.758	32.3
1062.178	32.67
1062.598	32.84
1063.017	32.85
1063.437	32.63
1063.856	33.21
1064.276	33.18
1064.695	33.03
1065.114	33.56
1065.534	32.73
1065.953	32.73
1066.372	32.61
1066.792	33.32
1067.211	32.62
1067.63	33.12
1068.049	32.58
1068.469	33.25
1068.888	32.92
1069.307	32.6
1069.726	32.82
1070.145	33.32
1070.564	32.44
1070.983	33.01
1071.402	33.43
1071.821	33.23
1072.24	33.78
1072.659	33.36
1073.078	33.45
1073.496	33.04
1073.915	32.59
1074.334	32.99
1074.753	33.33
1075.171	33.42
1075.59	32.85
1076.009	33.42
1076.427	32.85
1076.846	33.08
1077.265	33.54
1077.683	32.87
1078.102	34.11
1078.52	32.82
1078.939	33.77
1079.357	32.48
1079.776	32.84
1080.194	34.8
1080.612	32.88
1081.031	32.81
1081.449	32.91
1081.867	35.76
1082.285	33.72
1082.704	33.89
1083.122	32.43
1083.54	33.97
1083.958	33
1084.376	32.9
1084.794	32.35
1085.212	32.72
1085.63	34.19
1086.048	34.2
1086.466	33.77
1086.884	35
1087.302	34.45
1087.72	33.15
1088.138	34.14
1088.555	33.89
1088.973	33.61
1089.391	33.18
1089.809	33.51
1090.226	33.32
1090.644	33.57
1091.062	31.99
1091.479	32.63
1091.897	34.69
1092.314	35.33
1092.732	33.62
1093.15	35.1
1093.567	33.78
1093.984	33.79
1094.402	33.08
1094.819	33.22
1095.237	33.27
1095.654	33.76
1096.071	34.13
1096.488	34.5
1096.906	35.76
1097.323	34.6
1097.74	33.3
1098.157	33.36
1098.574	34.77
1098.991	34.14
1099.409	33.59
1099.826	34.36
1100.243	34.24
1100.66	35
1101.077	35.12
1101.494	35.41
1101.91	34.65
1102.327	32.26
1102.744	35.27
1103.161	33.78
1103.578	32.47
1103.994	33.93
1104.411	33.36
1104.828	34.11
1105.245	33.88
1105.661	34.36
1106.078	35.76
1106.494	34.84
1106.911	33.14
1107.328	33.15
1107.744	35.08
1108.161	32.69
1108.577	31.41
1108.993	35.83
1109.41	33.14
1109.826	35.63
1110.242	31.07
1110.659	34.55
1111.075	34.15
1111.491	33.09
1111.908	34.05
1112.324	32.64
1112.74	32.23
1113.156	36.82
1113.572	31.44
1113.988	35.06
1114.404	34.28
1114.82	34.21
1115.236	32.65
1115.652	35.71
1116.068	35.45
1116.484	31.97
1116.9	30.91
1117.316	33.6
1117.732	79.41
1118.147	36.59
1118.563	85.71
1118.979	262.5
