Data from JCR0016_Black1_Reflection_00002.txt Node
Date: Thu Jul 23 15:36:32 ACST 2020
User: Stacey Dix
Spectrometer: MAYP113282
Scans to average: 1
Trigger mode: 0
Integration Time (sec): 1.000000E-1
Electric dark correction enabled: true
Boxcar width: 0
XAxis mode: Wavelengths
Number of Pixels in Spectrum: 2068
>>>>>Begin Spectral Data<<<<<
198.791	-1500
199.266	1100
199.74	71.43
200.215	-14.29
200.69	-3.61
201.164	-17.33
201.639	15.49
202.114	16.31
202.588	18.52
203.063	-2.26
203.537	-100
204.012	3.37
204.486	17.99
204.961	21.84
205.435	7.32
205.909	1.05
206.384	14.29
206.858	29.9
207.332	-20
207.807	-12.87
208.281	34.31
208.755	4.5
209.229	8.4
209.703	11.71
210.177	14.53
210.651	2.19
211.126	8.97
211.6	6.57
212.074	11.72
212.548	10.24
213.021	3.55
213.495	17.07
213.969	-14.29
214.443	-6.98
214.917	10.64
215.391	7.69
215.864	15.79
216.338	9.29
216.812	12.57
217.286	15.42
217.759	8.6
218.233	-30.07
218.706	14.45
219.18	21.89
219.654	19.6
220.127	17.6
220.6	17.05
221.074	14.18
221.547	4.76
222.021	26.41
222.494	34.8
222.967	16.97
223.441	21.86
223.914	9.83
224.387	35.87
224.86	19.63
225.334	14.12
225.807	27.93
226.28	11.39
226.753	29.36
227.226	22.67
227.699	30.07
228.172	30.39
228.645	11.86
229.118	22.24
229.591	23.24
230.064	23
230.537	29.43
231.01	30.91
231.482	29.22
231.955	28.16
232.428	25.43
232.901	28.05
233.373	28.69
233.846	25.14
234.319	17.8
234.791	25.32
235.264	24.92
235.736	22.09
236.209	20.18
236.681	23.9
237.154	27.48
237.626	25.62
238.099	23.01
238.571	23.84
239.044	21.61
239.516	25.32
239.988	21.44
240.46	23.91
240.933	25.18
241.405	23.23
241.877	20.84
242.349	24.21
242.821	23.48
243.293	21.7
243.765	21.08
244.237	24.46
244.71	24.17
245.181	22.89
245.653	21.64
246.125	24.59
246.597	23.35
247.069	24.78
247.541	20.72
248.013	18.65
248.485	18.6
248.956	18.33
249.428	16.94
249.9	24.8
250.371	21.48
250.843	22.75
251.315	20.67
251.786	19.65
252.258	20.77
252.729	22.22
253.201	20.3
253.672	18.48
254.144	19.02
254.615	19
255.086	18.78
255.558	20.72
256.029	17.98
256.5	19.71
256.972	19.27
257.443	20.39
257.914	19.55
258.385	20.92
258.856	19.01
259.327	19.96
259.799	19.48
260.27	19.59
260.741	18.76
261.212	18.9
261.683	20.61
262.154	20.11
262.624	18.53
263.095	17.83
263.566	19.06
264.037	18.82
264.508	21.96
264.979	17.59
265.449	18.42
265.92	19.42
266.391	18.11
266.861	17.08
267.332	19.57
267.803	17.58
268.273	19.52
268.744	19.75
269.214	20.65
269.685	19.06
270.155	17.12
270.626	18.93
271.096	19.23
271.566	18.62
272.037	18.04
272.507	19.19
272.977	20.28
273.448	20
273.918	19.35
274.388	15.6
274.858	19.92
275.328	19.82
275.798	17.76
276.268	19.92
276.738	20.06
277.208	18.75
277.678	17.12
278.148	17.8
278.618	17.52
279.088	15.86
279.558	19.8
280.028	18.32
280.498	17.86
280.968	18.87
281.437	18.88
281.907	20.09
282.377	20.55
282.847	17.45
283.316	18.58
283.786	18.71
284.255	17.74
284.725	20.33
285.194	18.13
285.664	17.3
286.133	17.16
286.603	18.19
287.072	17.4
287.542	18.03
288.011	17.53
288.48	18.07
288.95	16.74
289.419	19.01
289.888	17.05
290.357	18.32
290.827	16.82
291.296	18
291.765	17.15
292.234	18.12
292.703	19.74
293.172	18.65
293.641	15.57
294.11	17.27
294.579	19.33
295.048	18.73
295.517	18.32
295.986	16.3
296.455	18.59
296.923	16.18
297.392	18.35
297.861	16.44
298.33	16.43
298.798	15.5
299.267	18.43
299.736	17.42
300.204	18.38
300.673	16.1
301.141	16.02
301.61	16.82
302.079	17.53
302.547	15.51
303.015	16.6
303.484	18.37
303.952	14.45
304.421	17.99
304.889	13.92
305.357	18.68
305.825	14.46
306.294	16.18
306.762	16.75
307.23	14.64
307.698	14.85
308.166	15.93
308.634	16.73
309.103	16.53
309.571	15.2
310.039	16.55
310.507	12.14
310.975	14.05
311.442	15.62
311.91	15.94
312.378	14.08
312.846	12.33
313.314	14.63
313.782	14.35
314.249	13.53
314.717	15.66
315.185	13.05
315.652	13.15
316.12	14.82
316.588	13.84
317.055	15.54
317.523	13.64
317.99	14.72
318.458	14.64
318.925	13.41
319.393	15.14
319.86	12.76
320.328	12.06
320.795	12.27
321.262	12.09
321.73	13.96
322.197	12.77
322.664	14.72
323.131	13.84
323.598	13.53
324.066	11.64
324.533	10.83
325	13.02
325.467	11.85
325.934	13.77
326.401	14.11
326.868	15.24
327.335	11.13
327.802	12.59
328.269	12.45
328.735	12.74
329.202	12.39
329.669	11.12
330.136	12.34
330.603	11.65
331.069	12.45
331.536	10.97
332.003	10.29
332.469	12.55
332.936	10.53
333.402	11.22
333.869	12.88
334.336	11.97
334.802	12.58
335.268	12.1
335.735	11.06
336.201	9.61
336.668	9.71
337.134	11.63
337.6	10.3
338.067	12.79
338.533	10.91
338.999	10.61
339.465	11.22
339.931	11.89
340.398	11.48
340.864	8.82
341.33	9.89
341.796	11.18
342.262	10.52
342.728	9.77
343.194	11.45
343.66	9.98
344.126	9.9
344.592	10.8
345.057	12.63
345.523	10.45
345.989	11.03
346.455	11.26
346.921	9.86
347.386	9.39
347.852	9.46
348.318	10.08
348.783	9.42
349.249	10.92
349.714	10.93
350.18	9.87
350.645	9.63
351.111	9.16
351.576	6.84
352.042	10.14
352.507	9.13
352.973	8.3
353.438	10.51
353.903	7.7
354.369	9.75
354.834	10
355.299	10.12
355.764	8.98
356.229	9.1
356.695	7.68
357.16	9.38
357.625	8.95
358.09	9.73
358.555	9.56
359.02	10.02
359.485	8.72
359.95	8.27
360.415	8.45
360.879	7.78
361.344	8.98
361.809	9.49
362.274	8.74
362.739	8.55
363.203	10.6
363.668	7.52
364.133	7.64
364.597	8.67
365.062	9.55
365.527	8.11
365.991	7.23
366.456	9.61
366.92	8.29
367.385	8.57
367.849	10.14
368.314	9.41
368.778	8.56
369.242	10.6
369.707	8.46
370.171	8.84
370.635	8.42
371.1	9.45
371.564	9.07
372.028	9.27
372.492	8.37
372.956	8.3
373.42	8.01
373.884	9.6
374.348	8.13
374.812	8.56
375.276	9.2
375.74	7.62
376.204	6.82
376.668	8.06
377.132	8.78
377.596	7.73
378.06	10.26
378.524	7.75
378.987	9.09
379.451	8.27
379.915	8.12
380.378	9.7
380.842	8.47
381.306	7.86
381.769	8.59
382.233	7.91
382.696	8.66
383.16	7.87
383.623	8.07
384.087	9.15
384.55	9.38
385.014	7.19
385.477	8.02
385.94	7.83
386.404	8.69
386.867	8.29
387.33	9.87
387.793	8.8
388.256	7.79
388.72	7.44
389.183	7.22
389.646	7.21
390.109	9.22
390.572	8.69
391.035	9.86
391.498	7.93
391.961	7.62
392.424	8.79
392.887	7.69
393.35	7.78
393.812	9.8
394.275	7.55
394.738	8.79
395.201	7.5
395.664	7.15
396.126	7.05
396.589	7.94
397.052	8.36
397.514	7.18
397.977	8.6
398.439	8
398.902	8.05
399.364	8.53
399.827	5.93
400.289	9.06
400.752	7.69
401.214	6.6
401.676	7.28
402.139	7.64
402.601	8.83
403.063	8.35
403.525	8.34
403.988	7.71
404.45	8.46
404.912	8.01
405.374	8.83
405.836	7.34
406.298	7.92
406.76	7.79
407.222	9.04
407.684	7.53
408.146	8.28
408.608	7.14
409.07	7.68
409.532	7.14
409.994	7.16
410.456	7.69
410.917	8.23
411.379	6.17
411.841	8.82
412.303	9.35
412.764	7.84
413.226	7.16
413.687	8.04
414.149	7.68
414.611	7.14
415.072	7.57
415.534	8.01
415.995	7.45
416.457	7.32
416.918	7.87
417.379	9.05
417.841	6.88
418.302	7.78
418.763	7.96
419.225	7.73
419.686	7.15
420.147	8.15
420.608	7.4
421.069	7.83
421.53	7.74
421.991	8.13
422.453	7.11
422.914	8.59
423.375	7.12
423.836	8.52
424.297	7.87
424.757	8.19
425.218	6.74
425.679	6.74
426.14	7.71
426.601	8.28
427.062	8.53
427.522	9.09
427.983	8.25
428.444	6.09
428.904	8.17
429.365	8.77
429.826	7.83
430.286	6.18
430.747	9.52
431.207	5.91
431.668	7.08
432.128	5.12
432.589	7.26
433.049	5.49
433.509	4.61
433.97	6.85
434.43	6.3
434.89	5.66
435.351	6.46
435.811	5.36
436.271	10.83
436.731	6.73
437.191	5.77
437.651	5.6
438.112	7.66
438.572	9.4
439.032	7.54
439.492	7.49
439.952	7.28
440.412	5.73
440.871	7.56
441.331	4.49
441.791	5.44
442.251	7.11
442.711	7.15
443.171	5.37
443.63	6.89
444.09	9.32
444.55	6.47
445.009	7.44
445.469	6.27
445.929	7.14
446.388	8.67
446.848	6.12
447.307	7.65
447.767	5.73
448.226	4.27
448.686	5.39
449.145	6.33
449.604	7.33
450.064	6.42
450.523	8.16
450.982	6.26
451.442	6.56
451.901	7.73
452.36	5.7
452.819	8.41
453.278	7.51
453.737	10.03
454.197	6.38
454.656	7.13
455.115	7.63
455.574	6.05
456.033	8.62
456.492	6.89
456.95	6.25
457.409	6.05
457.868	7.11
458.327	7.64
458.786	5.94
459.245	6.86
459.703	6.84
460.162	6.59
460.621	5.88
461.079	5.37
461.538	7.73
461.997	7.46
462.455	5.24
462.914	3.38
463.372	7.95
463.831	3.95
464.289	5.06
464.748	5.64
465.206	6.35
465.664	9.05
466.123	7.96
466.581	5.1
467.039	9.03
467.497	8.56
467.956	7.99
468.414	5.43
468.872	7.9
469.33	4.49
469.788	7.39
470.246	6.11
470.704	6.55
471.162	6.36
471.62	7.78
472.078	5.67
472.536	4.9
472.994	7.05
473.452	8.82
473.91	8.11
474.368	10.11
474.826	5.3
475.283	8.23
475.741	7.65
476.199	5.01
476.656	8.31
477.114	6.02
477.572	5.8
478.029	4.65
478.487	7.05
478.944	8.59
479.402	5.93
479.859	4.68
480.317	7.27
480.774	5.37
481.232	4.72
481.689	7.49
482.146	6.68
482.604	10.36
483.061	5.8
483.518	7.41
483.975	5.34
484.433	4.68
484.89	7.77
485.347	8.62
485.804	6.32
486.261	5.67
486.718	4.13
487.175	4.6
487.632	5.34
488.089	7.46
488.546	4.86
489.003	5.58
489.46	7.64
489.917	7.41
490.373	6.48
490.83	5.33
491.287	9.47
491.744	5.64
492.2	7.53
492.657	6.88
493.114	6.19
493.57	6.05
494.027	6.15
494.484	4.88
494.94	2.23
495.397	4.63
495.853	9.7
496.31	7.41
496.766	4.81
497.222	6.86
497.679	4.96
498.135	5.49
498.591	5.12
499.048	5.79
499.504	5.34
499.96	4.76
500.416	6.55
500.872	5.38
501.329	5.88
501.785	5.81
502.241	5.74
502.697	5.56
503.153	7.33
503.609	6.25
504.065	4.71
504.521	6.22
504.977	3.77
505.432	6.32
505.888	5.87
506.344	8.56
506.8	3.65
507.256	6.19
507.711	5.18
508.167	4.67
508.623	8.14
509.078	6.95
509.534	6.18
509.99	6.87
510.445	6.15
510.901	5.66
511.356	6.56
511.812	7.28
512.267	6.7
512.722	5.56
513.178	6.35
513.633	7.33
514.089	4.96
514.544	5.76
514.999	6.87
515.454	5.31
515.91	5.91
516.365	8.03
516.82	6.6
517.275	6.23
517.73	4.97
518.185	5.63
518.64	6.3
519.095	5.62
519.55	5.09
520.005	8.51
520.46	7.19
520.915	5.48
521.37	6.03
521.825	5.57
522.28	5.38
522.734	5.23
523.189	6.28
523.644	5.47
524.099	4.41
524.553	6.86
525.008	5.38
525.462	7.38
525.917	6.09
526.372	6.76
526.826	6
527.281	7.05
527.735	5.74
528.19	5.8
528.644	6.16
529.098	6.66
529.553	7.18
530.007	6.42
530.461	6.41
530.916	6
531.37	6.6
531.824	7.53
532.278	5.67
532.732	5.26
533.186	6.04
533.641	4.72
534.095	5.58
534.549	6.48
535.003	7.21
535.457	6.1
535.911	4.81
536.365	7.16
536.818	6.5
537.272	5.35
537.726	5.58
538.18	6.83
538.634	5.45
539.087	7.17
539.541	6.23
539.995	5.84
540.449	7.26
540.902	6.48
541.356	5.6
541.809	8.66
542.263	4.02
542.716	8.09
543.17	4.86
543.623	6.71
544.077	5.32
544.53	8.19
544.984	6.56
545.437	5.07
545.89	6.16
546.344	5.52
546.797	5.64
547.25	5.58
547.703	5.22
548.157	7.07
548.61	5.19
549.063	3.39
549.516	6.84
549.969	7.4
550.422	5.56
550.875	5.16
551.328	5.38
551.781	5.69
552.234	7.85
552.687	7.02
553.14	6.16
553.592	5.06
554.045	5.79
554.498	4.74
554.951	6.44
555.404	5.97
555.856	7.15
556.309	5.13
556.762	5.97
557.214	7.25
557.667	5.5
558.119	6.81
558.572	6.59
559.024	8.1
559.477	7
559.929	5.91
560.382	5.74
560.834	6.32
561.286	5.48
561.739	7.21
562.191	4.81
562.643	5.77
563.095	7.14
563.548	5.29
564	6.98
564.452	6.81
564.904	6.79
565.356	5.56
565.808	7.13
566.26	6.9
566.712	6.11
567.164	5.71
567.616	6.57
568.068	5.05
568.52	6.13
568.972	6.05
569.424	7.23
569.876	7.45
570.327	7.4
570.779	6.87
571.231	5.84
571.682	6.51
572.134	5.82
572.586	6.11
573.037	7.41
573.489	7.08
573.941	7.63
574.392	6.61
574.844	6.21
575.295	7.32
575.746	5.85
576.198	6.27
576.649	5.91
577.101	8.04
577.552	7.08
578.003	6.77
578.454	5.61
578.906	5.26
579.357	6.68
579.808	7.97
580.259	6.68
580.71	6.01
581.161	6.77
581.612	6.32
582.064	6.85
582.515	6.56
582.965	6.65
583.416	6.21
583.867	7.82
584.318	5.84
584.769	6.55
585.22	7.22
585.671	5.74
586.122	5.57
586.572	7.26
587.023	7.22
587.474	6.64
587.924	5.48
588.375	6.17
588.826	6.44
589.276	5.97
589.727	7.03
590.177	6.7
590.628	7.01
591.078	7.47
591.529	6.87
591.979	5.99
592.429	8.21
592.88	4.9
593.33	7.68
593.78	6.03
594.231	6.8
594.681	5.91
595.131	6.3
595.581	7.66
596.031	6.69
596.481	5.93
596.932	6.14
597.382	7.64
597.832	7.04
598.282	6.85
598.732	7.27
599.182	6.77
599.632	6.15
600.081	6.87
600.531	6.18
600.981	7.33
601.431	5.22
601.881	6.77
602.33	7.06
602.78	5.7
603.23	7.55
603.679	5.43
604.129	5.87
604.579	6.29
605.028	5.37
605.478	5.19
605.927	5.96
606.377	5.92
606.826	6.52
607.276	5.47
607.725	7.9
608.175	6.3
608.624	6.36
609.073	5.3
609.522	5.49
609.972	6.06
610.421	7.06
610.87	6.8
611.319	6.34
611.768	6.35
612.218	6.86
612.667	6.52
613.116	6.89
613.565	6.08
614.014	6.16
614.463	6.53
614.912	6.3
615.361	6.31
615.81	7.07
616.258	7.35
616.707	7.32
617.156	7.03
617.605	6.12
618.054	8.32
618.502	7.13
618.951	6.23
619.4	7.49
619.848	6.55
620.297	7.6
620.745	6.82
621.194	5.3
621.642	7.1
622.091	7.41
622.539	7
622.988	7.79
623.436	6.55
623.885	6.25
624.333	7.12
624.781	7.55
625.23	6.68
625.678	6.27
626.126	6.45
626.574	7.34
627.022	6.27
627.471	6.57
627.919	7.93
628.367	6.99
628.815	6.02
629.263	6.64
629.711	7.08
630.159	6.74
630.607	7.48
631.055	7.06
631.503	7.61
631.95	6.51
632.398	7.45
632.846	6.34
633.294	6.81
633.742	6.92
634.189	6.99
634.637	6.8
635.085	6.37
635.532	8.19
635.98	8
636.427	6.91
636.875	6.66
637.323	6.76
637.77	7.12
638.217	6.91
638.665	6.79
639.112	7.82
639.56	6.66
640.007	7.64
640.454	7.58
640.902	7.67
641.349	6.97
641.796	6.74
642.243	7.31
642.69	7.09
643.138	7.59
643.585	7.26
644.032	6.68
644.479	5.74
644.926	7.13
645.373	6.93
645.82	7.21
646.267	6.94
646.714	7.05
647.161	7.39
647.607	7.46
648.054	6.73
648.501	7.99
648.948	7.53
649.395	6.87
649.841	7.22
650.288	6.58
650.735	7.27
651.181	6.97
651.628	6.73
652.075	7.31
652.521	6.98
652.968	6.88
653.414	7.27
653.861	7
654.307	7.1
654.753	7.76
655.2	7.49
655.646	7.19
656.092	7.39
656.539	6.38
656.985	7.33
657.431	7.49
657.877	7.15
658.324	7.17
658.77	6.04
659.216	6.7
659.662	6.26
660.108	7
660.554	7.42
661	7.8
661.446	7.21
661.892	7.14
662.338	7.39
662.784	6.68
663.23	7.44
663.675	7.87
664.121	6.91
664.567	6.67
665.013	7.57
665.458	6.64
665.904	6.81
666.35	7.26
666.795	6.72
667.241	7.21
667.687	6.81
668.132	7.12
668.578	7.08
669.023	7.37
669.469	7.05
669.914	8.08
670.359	7.59
670.805	6.89
671.25	7.87
671.695	7.11
672.141	7.25
672.586	7.53
673.031	7.54
673.476	6.98
673.922	7.21
674.367	6.66
674.812	7.69
675.257	6.52
675.702	6.65
676.147	7.94
676.592	7.03
677.037	7.38
677.482	7.41
677.927	6.89
678.372	8.08
678.817	7.41
679.261	7.44
679.706	7.59
680.151	7.69
680.596	7.17
681.04	7.52
681.485	7.77
681.93	7.23
682.374	7.29
682.819	7.03
683.264	7.63
683.708	8.18
684.153	7.87
684.597	8.01
685.042	7.69
685.486	7.2
685.93	7.87
686.375	7.77
686.819	7.12
687.263	7.2
687.708	6.8
688.152	7.72
688.596	7.33
689.04	7.46
689.485	7.38
689.929	7.48
690.373	7.62
690.817	7.22
691.261	6.9
691.705	7.47
692.149	7.57
692.593	7.32
693.037	7.14
693.481	8.06
693.925	7.1
694.369	7.29
694.812	7.64
695.256	7.25
695.7	7.34
696.144	7.51
696.587	7.18
697.031	6.84
697.475	7.48
697.918	7.6
698.362	8.09
698.806	7.76
699.249	7.51
699.693	7.1
700.136	7.96
700.58	7.59
701.023	7.69
701.466	7.68
701.91	7.78
702.353	7.3
702.796	7.75
703.24	7.9
703.683	6.94
704.126	8.07
704.569	7.53
705.013	7.32
705.456	7.83
705.899	7.69
706.342	7.51
706.785	7.8
707.228	7.43
707.671	7.86
708.114	7.64
708.557	7.8
709	7.68
709.443	7.59
709.886	6.79
710.328	7.86
710.771	7.61
711.214	7.81
711.657	7.93
712.099	7.88
712.542	8.15
712.985	7.23
713.427	7.75
713.87	7.53
714.313	7.54
714.755	8.07
715.198	7.67
715.64	8.38
716.083	7.56
716.525	7.44
716.967	7.23
717.41	8.36
717.852	7.39
718.295	7.24
718.737	7.71
719.179	7.86
719.621	7.54
720.063	7.91
720.506	7.96
720.948	8.19
721.39	7.55
721.832	7.83
722.274	8.01
722.716	7.92
723.158	8.31
723.6	8.32
724.042	7.09
724.484	7.8
724.926	7.96
725.368	7.3
725.81	7.82
726.251	7.76
726.693	7.68
727.135	8.48
727.577	8.64
728.018	7.96
728.46	8.18
728.902	7.77
729.343	7.92
729.785	7.95
730.226	7.72
730.668	7.67
731.109	7.68
731.551	7.78
731.992	7.75
732.434	8.02
732.875	7.77
733.316	7.87
733.758	7.97
734.199	7.73
734.64	8.09
735.081	7.81
735.523	7.92
735.964	8.71
736.405	7.98
736.846	7.96
737.287	7.85
737.728	7.43
738.169	7.56
738.61	6.95
739.051	8.64
739.492	7.86
739.933	8.35
740.374	8.07
740.815	8
741.256	7.92
741.696	8.18
742.137	8.06
742.578	8.37
743.019	7.86
743.459	7.85
743.9	7.5
744.341	7.92
744.781	8.75
745.222	8.16
745.662	8.47
746.103	7.94
746.543	8.37
746.984	8.54
747.424	8
747.865	8.44
748.305	7.65
748.745	8.2
749.186	8.17
749.626	8.42
750.066	8.09
750.506	9.06
750.947	8.44
751.387	7.86
751.827	8.1
752.267	8.54
752.707	8.67
753.147	7.8
753.587	7.71
754.027	7.93
754.467	7.94
754.907	8.42
755.347	7.6
755.787	8.34
756.227	8.63
756.667	8.5
757.107	8.23
757.546	8.39
757.986	7.73
758.426	8.38
758.865	8.38
759.305	8.63
759.745	8.61
760.184	8.32
760.624	8.57
761.063	8.81
761.503	7.99
761.943	8.34
762.382	8.82
762.821	8.26
763.261	8.31
763.7	7.91
764.14	8.29
764.579	8.78
765.018	8.5
765.457	8.63
765.897	8.42
766.336	8.32
766.775	8.18
767.214	8.15
767.653	7.68
768.092	8.36
768.531	8.76
768.97	8.08
769.409	8.15
769.848	8.62
770.287	8.52
770.726	8.64
771.165	8.08
771.604	7.77
772.043	9.22
772.482	8.47
772.92	8.37
773.359	8.09
773.798	8.54
774.237	8.64
774.675	8.83
775.114	8.63
775.553	9.07
775.991	8.55
776.43	8.65
776.868	8.69
777.307	8.22
777.745	8.83
778.184	8.5
778.622	8.92
779.06	9.02
779.499	8.81
779.937	8.42
780.375	8.4
780.814	8.32
781.252	8.1
781.69	8.33
782.128	9.13
782.566	8.94
783.004	9.07
783.443	8.9
783.881	8.83
784.319	8.88
784.757	8.93
785.195	8.72
785.633	9.42
786.071	9.24
786.508	8.88
786.946	8.98
787.384	9.05
787.822	9.02
788.26	8.6
788.697	9.05
789.135	9.45
789.573	9.18
790.011	9.18
790.448	8.38
790.886	9.25
791.323	8.73
791.761	8.89
792.198	9.12
792.636	9.27
793.073	9.03
793.511	8.49
793.948	9.33
794.386	8.93
794.823	9.24
795.26	9.28
795.698	8.79
796.135	9.04
796.572	9.54
797.009	9.47
797.446	8.96
797.884	9.22
798.321	8.86
798.758	9.22
799.195	9.25
799.632	8.95
800.069	9.23
800.506	9.28
800.943	9.04
801.38	9.4
801.817	8.58
802.254	8.85
802.69	9.43
803.127	9.14
803.564	8.88
804.001	8.87
804.438	9.8
804.874	8.68
805.311	9.33
805.748	9.45
806.184	9.11
806.621	9.67
807.057	9.76
807.494	9.6
807.93	9.67
808.367	9.26
808.803	9.88
809.24	9.3
809.676	9.61
810.112	9.51
810.549	9.14
810.985	9.57
811.421	9.56
811.857	9.46
812.294	9.28
812.73	9.32
813.166	9.25
813.602	9.93
814.038	10
814.474	9.56
814.91	9.39
815.346	9.41
815.782	8.94
816.218	9.56
816.654	8.99
817.09	9.45
817.526	9.18
817.962	9.7
818.398	9.41
818.833	9.61
819.269	9.52
819.705	9.68
820.141	9.94
820.576	9.62
821.012	9.45
821.447	9.67
821.883	9.49
822.319	10.05
822.754	9.94
823.19	9.9
823.625	9.99
824.061	9.63
824.496	9.49
824.931	9.63
825.367	9.93
825.802	10.18
826.237	9.67
826.673	9.73
827.108	10.23
827.543	9.83
827.978	10.14
828.413	9.81
828.849	9.73
829.284	9.78
829.719	9.55
830.154	9.28
830.589	10.38
831.024	9.93
831.459	9.61
831.894	10.22
832.329	10.13
832.763	9.98
833.198	10.08
833.633	10.43
834.068	9.46
834.503	9.89
834.937	9.55
835.372	10.45
835.807	10.24
836.241	9.71
836.676	10.22
837.111	10.23
837.545	10.14
837.98	10.2
838.414	9.7
838.849	10.12
839.283	9.94
839.717	10.35
840.152	9.99
840.586	10.37
841.021	9.98
841.455	10.22
841.889	10.39
842.323	10.06
842.758	10.49
843.192	9.72
843.626	10.53
844.06	10.44
844.494	10.5
844.928	10.61
845.362	10.5
845.796	9.95
846.23	10.27
846.664	10.37
847.098	10.44
847.532	10.72
847.966	10.75
848.4	10.39
848.834	10.53
849.267	10.17
849.701	10.85
850.135	10.83
850.569	10.68
851.002	10.51
851.436	10.48
851.87	11.1
852.303	10.6
852.737	10.67
853.17	10.9
853.604	10.99
854.037	10.67
854.471	11.13
854.904	10.57
855.337	10.87
855.771	10.46
856.204	10.55
856.637	10.91
857.071	10.85
857.504	10.85
857.937	10.7
858.37	10.78
858.804	10.66
859.237	10.64
859.67	10.64
860.103	10.54
860.536	10.91
860.969	11.35
861.402	10.91
861.835	11.05
862.268	10.62
862.701	10.7
863.134	11.03
863.566	11.04
863.999	11.34
864.432	10.89
864.865	10.6
865.298	10.95
865.73	10.95
866.163	10.98
866.596	11.08
867.028	11.21
867.461	11.13
867.893	10.99
868.326	11.03
868.758	10.73
869.191	11.52
869.623	11.29
870.056	11.49
870.488	11.05
870.92	11.26
871.353	11.22
871.785	11.42
872.217	11.3
872.65	11.41
873.082	11.34
873.514	11.19
873.946	11.43
874.378	11.76
874.81	11.21
875.243	11.2
875.675	11.73
876.107	11.4
876.539	11.46
876.971	11.35
877.403	11.51
877.834	11.1
878.266	11.81
878.698	11.6
879.13	11.99
879.562	11.74
879.994	11.82
880.425	12.02
880.857	11.78
881.289	11.66
881.72	11.72
882.152	12.02
882.584	11.58
883.015	11.52
883.447	11.36
883.878	11.52
884.31	12.06
884.741	11.83
885.173	11.83
885.604	12.09
886.035	11.47
886.467	12.07
886.898	11.78
887.329	11.85
887.76	11.56
888.192	11.95
888.623	11.93
889.054	11.42
889.485	11.84
889.916	11.75
890.347	12.22
890.778	11.63
891.209	12.06
891.64	12.3
892.071	11.8
892.502	12.15
892.933	12.04
893.364	11.97
893.795	12.32
894.226	12.09
894.657	11.98
895.087	12.03
895.518	12.28
895.949	12.17
896.38	12.32
896.81	12.17
897.241	11.79
897.671	12.55
898.102	12.37
898.533	12.22
898.963	12.58
899.394	12.2
899.824	12.56
900.254	12.62
900.685	12.67
901.115	12.46
901.546	12.45
901.976	12.25
902.406	12.39
902.836	12.25
903.267	12.48
903.697	12.2
904.127	12.69
904.557	12.59
904.987	12.22
905.417	11.97
905.847	12.89
906.277	12.89
906.707	12.41
907.137	12.59
907.567	12.82
907.997	12.87
908.427	12.8
908.857	12.81
909.287	12.67
909.717	12.88
910.146	12.9
910.576	12.84
911.006	13.03
911.436	12.89
911.865	13.01
912.295	12.61
912.724	12.64
913.154	12.7
913.584	13
914.013	12.7
914.443	12.85
914.872	12.89
915.302	12.93
915.731	12.85
916.16	13.03
916.59	12.7
917.019	13.25
917.448	13.11
917.878	12.97
918.307	13.31
918.736	13.16
919.165	13.28
919.594	12.99
920.023	13.08
920.452	13.66
920.882	13.67
921.311	13.05
921.74	13.47
922.169	13.5
922.597	13.42
923.026	13.55
923.455	13.51
923.884	13.28
924.313	14.01
924.742	13.67
925.171	13.33
925.599	13.46
926.028	13.79
926.457	13.57
926.885	13.66
927.314	13.6
927.743	13.39
928.171	13.51
928.6	13.77
929.028	13.48
929.457	13.48
929.885	13.88
930.314	13.64
930.742	13.89
931.17	13.84
931.599	13.86
932.027	13.38
932.455	13.82
932.884	13.73
933.312	14.4
933.74	14.24
934.168	13.81
934.596	13.82
935.025	13.95
935.453	14.27
935.881	14.33
936.309	13.75
936.737	14.22
937.165	14.32
937.593	14.13
938.021	14.32
938.449	13.89
938.876	14.42
939.304	14.55
939.732	14.45
940.16	14.17
940.588	14.98
941.015	14.23
941.443	13.7
941.871	14.14
942.298	14.49
942.726	14.46
943.154	13.91
943.581	15.15
944.009	14.54
944.436	14.03
944.864	14.74
945.291	14.53
945.718	14.61
946.146	14.78
946.573	14.4
947.001	14.28
947.428	15.15
947.855	14.44
948.282	14.79
948.71	14.58
949.137	14.92
949.564	14.77
949.991	14.18
950.418	15.23
950.845	14.79
951.272	15.01
951.699	15.23
952.126	14.97
952.553	15.54
952.98	14.83
953.407	15.71
953.834	15.3
954.261	14.51
954.688	14.98
955.114	15.24
955.541	15.2
955.968	14.98
956.395	14.99
956.821	15.06
957.248	15.31
957.674	14.95
958.101	15.11
958.528	15.36
958.954	15.14
959.381	15.57
959.807	15.01
960.234	15.35
960.66	15.19
961.086	15.22
961.513	15.56
961.939	15.22
962.365	15.59
962.792	15.32
963.218	15.33
963.644	15.79
964.07	15.74
964.496	15.79
964.923	15.15
965.349	15.62
965.775	15.49
966.201	15.77
966.627	15.63
967.053	15.67
967.479	15.68
967.905	15.91
968.331	15.36
968.756	16.05
969.182	15.92
969.608	16.06
970.034	15.78
970.46	16.05
970.885	16.12
971.311	16.03
971.737	16.12
972.162	15.98
972.588	16.54
973.014	16.16
973.439	16.16
973.865	16.06
974.29	15.97
974.716	16.29
975.141	16.35
975.567	16.42
975.992	16.53
976.417	16.25
976.843	16.48
977.268	16.56
977.693	16.56
978.119	16.41
978.544	16.59
978.969	16.63
979.394	16.36
979.819	16.52
980.244	16.66
980.669	16.45
981.095	16.48
981.52	16.88
981.945	16.68
982.369	16.66
982.794	16.85
983.219	16.61
983.644	16.61
984.069	16.99
984.494	16.9
984.919	16.88
985.343	16.89
985.768	17.18
986.193	17.02
986.618	17.03
987.042	17.23
987.467	16.9
987.891	16.86
988.316	17.25
988.741	16.94
989.165	17.12
989.59	16.88
990.014	17.41
990.438	17.02
990.863	17.38
991.287	17.06
991.712	17.18
992.136	17.54
992.56	17.21
992.984	17.3
993.409	17.55
993.833	17.45
994.257	17.55
994.681	17.52
995.105	17.44
995.529	17.53
995.953	17.82
996.377	17.63
996.801	17.61
997.225	17.24
997.649	17.86
998.073	17.84
998.497	17.57
998.921	18.06
999.345	17.7
999.769	17.72
1000.192	17.87
1000.616	17.51
1001.04	17.78
1001.464	17.8
1001.887	18.13
1002.311	18.39
1002.734	17.95
1003.158	17.88
1003.582	17.97
1004.005	18.04
1004.429	18.04
1004.852	18.07
1005.275	18.18
1005.699	18.46
1006.122	18.2
1006.546	18.09
1006.969	18.33
1007.392	18.11
1007.815	17.98
1008.239	18.24
1008.662	18.48
1009.085	18.71
1009.508	18.35
1009.931	18.67
1010.354	18.54
1010.778	18.8
1011.201	18.9
1011.624	18.88
1012.047	18.69
1012.469	18.64
1012.892	18.72
1013.315	18.6
1013.738	18.87
1014.161	18.78
1014.584	18.99
1015.007	18.94
1015.429	19.23
1015.852	18.72
1016.275	19.09
1016.697	18.94
1017.12	19.13
1017.543	18.66
1017.965	19.12
1018.388	19.49
1018.81	19.39
1019.233	18.82
1019.655	19.29
1020.078	18.84
1020.5	19.41
1020.922	18.96
1021.345	19.18
1021.767	19.6
1022.189	19.5
1022.612	19.09
1023.034	19.16
1023.456	19.08
1023.878	19.28
1024.301	20.12
1024.723	19.5
1025.145	19.63
1025.567	19.57
1025.989	19.67
1026.411	19.36
1026.833	19.95
1027.255	19.93
1027.677	20.12
1028.099	19.74
1028.52	19.46
1028.942	20.5
1029.364	19.22
1029.786	20.27
1030.208	19.83
1030.629	19.51
1031.051	20
1031.473	19.6
1031.894	19.87
1032.316	20.13
1032.738	20.55
1033.159	20.23
1033.581	20.41
1034.002	20.17
1034.424	20.09
1034.845	20.36
1035.267	20.72
1035.688	20.2
1036.109	20.48
1036.531	19.75
1036.952	20.3
1037.373	20.68
1037.794	20.34
1038.216	20.52
1038.637	20.46
1039.058	20.44
1039.479	20.58
1039.9	20.57
1040.321	20.7
1040.742	20.76
1041.163	20.35
1041.584	20.41
1042.005	20.44
1042.426	20.86
1042.847	21.04
1043.268	20.93
1043.689	20.47
1044.11	20.92
1044.53	20.88
1044.951	21.27
1045.372	21.42
1045.793	21.75
1046.213	20.75
1046.634	20.87
1047.055	21.54
1047.475	21.28
1047.896	21.63
1048.316	21.56
1048.737	20.82
1049.157	21.78
1049.578	21.32
1049.998	21.62
1050.419	21.29
1050.839	21.53
1051.259	21.47
1051.68	21.83
1052.1	20.99
1052.52	21.3
1052.94	21.97
1053.361	21.59
1053.781	21.87
1054.201	21.24
1054.621	21.86
1055.041	22
1055.461	21.52
1055.881	21.61
1056.301	21.6
1056.721	21.52
1057.141	21.74
1057.561	22.38
1057.981	21.75
1058.401	22.04
1058.82	21.84
1059.24	21.77
1059.66	22.44
1060.08	22.15
1060.499	21.98
1060.919	22.08
1061.339	21.68
1061.758	22.36
1062.178	22.34
1062.598	21.91
1063.017	22.73
1063.437	22.68
1063.856	21.87
1064.276	21.9
1064.695	21.86
1065.114	22.58
1065.534	22.42
1065.953	21.96
1066.372	22.83
1066.792	22.59
1067.211	23.44
1067.63	21.58
1068.049	21.7
1068.469	21.66
1068.888	22.14
1069.307	22.14
1069.726	23
1070.145	22.6
1070.564	22.96
1070.983	23.52
1071.402	24.67
1071.821	22.56
1072.24	22.77
1072.659	22.13
1073.078	22.99
1073.496	23.24
1073.915	22.83
1074.334	23.01
1074.753	22.79
1075.171	22.91
1075.59	22.38
1076.009	22.79
1076.427	22.88
1076.846	23.08
1077.265	21.84
1077.683	22.45
1078.102	24.03
1078.52	23.09
1078.939	22.84
1079.357	24.12
1079.776	23.53
1080.194	24.27
1080.612	23.86
1081.031	22.46
1081.449	22.56
1081.867	23.78
1082.285	23.69
1082.704	24.22
1083.122	22.56
1083.54	23.67
1083.958	24.09
1084.376	23.01
1084.794	23.02
1085.212	23.66
1085.63	25.05
1086.048	24.01
1086.466	24.03
1086.884	22.75
1087.302	22.69
1087.72	23.65
1088.138	22.85
1088.555	22.89
1088.973	25.1
1089.391	23.74
1089.809	23.41
1090.226	25.63
1090.644	24.67
1091.062	23.85
1091.479	24.61
1091.897	22.94
1092.314	23.78
1092.732	23.81
1093.15	24.59
1093.567	23.05
1093.984	25.24
1094.402	24.69
1094.819	22.66
1095.237	24.94
1095.654	24.46
1096.071	24.26
1096.488	22.69
1096.906	23.23
1097.323	23.44
1097.74	25.47
1098.157	23.7
1098.574	24.57
1098.991	23.77
1099.409	23.95
1099.826	24.04
1100.243	23.32
1100.66	26.2
1101.077	23.89
1101.494	23.8
1101.91	27.54
1102.327	23.78
1102.744	22.48
1103.161	24.73
1103.578	22.55
1103.994	24.46
1104.411	24.67
1104.828	25.45
1105.245	22.56
1105.661	23.13
1106.078	24.75
1106.494	22.4
1106.911	27.33
1107.328	24.7
1107.744	23.43
1108.161	25.9
1108.577	25.04
1108.993	24.29
1109.41	24.08
1109.826	26.16
1110.242	21.24
1110.659	25.97
1111.075	27.41
1111.491	24.23
1111.908	24.1
1112.324	26.06
1112.74	15.4
1113.156	25.52
1113.572	24.38
1113.988	23.67
1114.404	25.71
1114.82	29.63
1115.236	25.35
1115.652	23.86
1116.068	24.59
1116.484	27.8
1116.9	23.51
1117.316	30.8
1117.732	14.29
1118.147	11.11
1118.563	45.45
1118.979	-11.11
