Data from JCR0018_Black2_Reflection_00001.txt Node
Date: Thu Jul 23 16:27:20 ACST 2020
User: Stacey Dix
Spectrometer: MAYP113282
Scans to average: 1
Trigger mode: 0
Integration Time (sec): 1.000000E-1
Electric dark correction enabled: true
Boxcar width: 0
XAxis mode: Wavelengths
Number of Pixels in Spectrum: 2068
>>>>>Begin Spectral Data<<<<<
198.791	-325
199.266	-450
199.74	125
200.215	0
200.69	-11.64
201.164	16.2
201.639	3.85
202.114	5.8
202.588	11.29
203.063	13.37
203.537	13.18
204.012	13.25
204.486	12.63
204.961	7.14
205.435	15.87
205.909	6.85
206.384	14.66
206.858	8.88
207.332	1.97
207.807	21.43
208.281	18.28
208.755	11.48
209.229	12.72
209.703	26.47
210.177	4.81
210.651	-1.05
211.126	18.15
211.6	6.25
212.074	32.77
212.548	16.06
213.021	25.82
213.495	24.47
213.969	24.51
214.443	21.07
214.917	18.21
215.391	16.41
215.864	20.06
216.338	32.87
216.812	24.38
217.286	16.33
217.759	43.72
218.233	28.6
218.706	34.15
219.18	23.78
219.654	33.83
220.127	33.39
220.6	26.53
221.074	33.97
221.547	29.39
222.021	33.07
222.494	33.5
222.967	30.5
223.441	28.63
223.914	34.16
224.387	28.73
224.86	33.75
225.334	34.98
225.807	32.45
226.28	34.63
226.753	31.14
227.226	30.4
227.699	32
228.172	37.54
228.645	36.04
229.118	33.23
229.591	32.24
230.064	29.42
230.537	40.13
231.01	35.03
231.482	34.04
231.955	40.33
232.428	32.73
232.901	32.32
233.373	34.85
233.846	31.92
234.319	33.25
234.791	30.02
235.264	32.88
235.736	31.83
236.209	33.18
236.681	32.09
237.154	32.52
237.626	32.33
238.099	33.56
238.571	32.75
239.044	31.99
239.516	32.48
239.988	31.63
240.46	30.93
240.933	29.83
241.405	30.46
241.877	29.31
242.349	30.4
242.821	29.8
243.293	30.99
243.765	28.69
244.237	29.56
244.71	29.57
245.181	29.49
245.653	28.18
246.125	28.14
246.597	29.91
247.069	29.36
247.541	30.27
248.013	28.78
248.485	29.26
248.956	27.92
249.428	26.14
249.9	26.57
250.371	27.21
250.843	28.42
251.315	27.3
251.786	28.59
252.258	27.72
252.729	27.85
253.201	26.82
253.672	26.28
254.144	25.97
254.615	27.52
255.086	27.95
255.558	26.77
256.029	26.27
256.5	26.73
256.972	26.23
257.443	25.76
257.914	27.18
258.385	26.88
258.856	27.91
259.327	27.67
259.799	26.61
260.27	26.42
260.741	26.79
261.212	25.89
261.683	26.12
262.154	26.17
262.624	27.11
263.095	27.03
263.566	25.99
264.037	26.42
264.508	26.14
264.979	26.1
265.449	26.64
265.92	26.2
266.391	26.66
266.861	26.12
267.332	25.79
267.803	25.37
268.273	26.99
268.744	26.45
269.214	24.99
269.685	25.1
270.155	25.9
270.626	26.76
271.096	26.06
271.566	25.77
272.037	26.07
272.507	25.55
272.977	26.68
273.448	25.05
273.918	25.36
274.388	26.21
274.858	25.62
275.328	25.46
275.798	25.68
276.268	25.12
276.738	24.96
277.208	25.22
277.678	26.07
278.148	25.47
278.618	25.06
279.088	26.22
279.558	25.3
280.028	25.05
280.498	24.86
280.968	25.84
281.437	26
281.907	25.7
282.377	26.01
282.847	25.41
283.316	26.1
283.786	27.36
284.255	25.73
284.725	24.6
285.194	25.09
285.664	26.2
286.133	25.47
286.603	24.85
287.072	25.49
287.542	25.46
288.011	24.56
288.48	25.12
288.95	26.43
289.419	25.41
289.888	25.07
290.357	24.42
290.827	24.34
291.296	25.25
291.765	24.29
292.234	24.85
292.703	23.86
293.172	23.61
293.641	25.56
294.11	24.08
294.579	25.79
295.048	25.6
295.517	23.8
295.986	23.53
296.455	23.82
296.923	24.11
297.392	24.56
297.861	24.01
298.33	23.48
298.798	22.31
299.267	23.97
299.736	23.16
300.204	22.55
300.673	23.28
301.141	22.08
301.61	22.77
302.079	22.14
302.547	22.91
303.015	22.17
303.484	22.48
303.952	22.85
304.421	21.1
304.889	23.04
305.357	22.28
305.825	22.39
306.294	21.3
306.762	23.28
307.23	21.54
307.698	22.55
308.166	21.05
308.634	21.17
309.103	20.83
309.571	21.95
310.039	20.87
310.507	20.65
310.975	21.3
311.442	20.63
311.91	20.47
312.378	19.91
312.846	20.41
313.314	21.28
313.782	20.34
314.249	21.25
314.717	20.9
315.185	20.13
315.652	19.03
316.12	20.14
316.588	21.36
317.055	19.68
317.523	20.08
317.99	19.26
318.458	20.4
318.925	19.18
319.393	20.03
319.86	20.91
320.328	20.1
320.795	20.11
321.262	19.33
321.73	18.36
322.197	19.82
322.664	17.96
323.131	18.67
323.598	18.84
324.066	18.97
324.533	18.95
325	19.17
325.467	19.71
325.934	17.98
326.401	18.22
326.868	18.27
327.335	18.44
327.802	17.33
328.269	18.62
328.735	17.81
329.202	18.15
329.669	18.35
330.136	18.35
330.603	18.58
331.069	17.85
331.536	17.77
332.003	17.46
332.469	18.16
332.936	18.11
333.402	17.06
333.869	17.41
334.336	17.45
334.802	17.25
335.268	16.89
335.735	17.07
336.201	17.16
336.668	17.28
337.134	18.08
337.6	15.32
338.067	16.77
338.533	16.71
338.999	16.99
339.465	16.44
339.931	17.17
340.398	17.25
340.864	16.75
341.33	16.82
341.796	15.65
342.262	15.7
342.728	15.9
343.194	15.9
343.66	16.12
344.126	15.89
344.592	15.66
345.057	16.54
345.523	16.02
345.989	15.24
346.455	15.31
346.921	16.57
347.386	15.89
347.852	15.31
348.318	14.99
348.783	16.04
349.249	15.11
349.714	16.29
350.18	16.22
350.645	15.8
351.111	16.2
351.576	14.98
352.042	15.52
352.507	15.59
352.973	15.1
353.438	14.83
353.903	14.77
354.369	15.01
354.834	15.33
355.299	15.75
355.764	15.11
356.229	15.39
356.695	14.15
357.16	14.87
357.625	14.74
358.09	14.99
358.555	15.37
359.02	15.05
359.485	14.66
359.95	14.94
360.415	14.44
360.879	13.85
361.344	14.38
361.809	14.51
362.274	14.87
362.739	13.31
363.203	14.03
363.668	14.43
364.133	14.56
364.597	14.18
365.062	13.9
365.527	14.19
365.991	14.82
366.456	14.15
366.92	14.92
367.385	13.77
367.849	13.44
368.314	14.13
368.778	14.94
369.242	13.84
369.707	14.36
370.171	14.61
370.635	14.71
371.1	14.39
371.564	13.29
372.028	14.2
372.492	14.02
372.956	13.55
373.42	13.47
373.884	13.86
374.348	13.83
374.812	13.52
375.276	13.78
375.74	13.47
376.204	14.4
376.668	14.62
377.132	13.45
377.596	13.78
378.06	13.88
378.524	14.06
378.987	12.94
379.451	13.14
379.915	12.96
380.378	13.61
380.842	12.39
381.306	13.9
381.769	14.16
382.233	13.44
382.696	13.28
383.16	13.89
383.623	14.21
384.087	13.3
384.55	13.07
385.014	13.96
385.477	13.69
385.94	13.77
386.404	13.16
386.867	13.26
387.33	13.74
387.793	13.94
388.256	13.62
388.72	14.18
389.183	13.01
389.646	13.41
390.109	13.61
390.572	13.07
391.035	13.57
391.498	14.27
391.961	13.45
392.424	13.83
392.887	13.15
393.35	13.31
393.812	13.81
394.275	13.61
394.738	13.72
395.201	13.65
395.664	13.18
396.126	13.42
396.589	13.88
397.052	12.96
397.514	13.17
397.977	12.72
398.439	13.09
398.902	12.82
399.364	13.11
399.827	14.04
400.289	13.89
400.752	13.54
401.214	12.35
401.676	13.26
402.139	13.72
402.601	13.48
403.063	13.32
403.525	12.98
403.988	12.15
404.45	13.09
404.912	14.4
405.374	12.07
405.836	12.68
406.298	14.25
406.76	12.96
407.222	12.79
407.684	12.78
408.146	12.9
408.608	14.07
409.07	13.38
409.532	12
409.994	12.95
410.456	13.32
410.917	13.17
411.379	13.93
411.841	12.12
412.303	13.34
412.764	12.38
413.226	12.68
413.687	12.36
414.149	11.98
414.611	14.24
415.072	13.04
415.534	12.62
415.995	12.46
416.457	12.89
416.918	13.19
417.379	13.28
417.841	13.33
418.302	12.76
418.763	13.35
419.225	12.9
419.686	11.65
420.147	12.99
420.608	13.31
421.069	12.91
421.53	12.41
421.991	13.33
422.453	12.54
422.914	12.27
423.375	12.01
423.836	13.26
424.297	12.59
424.757	12.86
425.218	12.18
425.679	12.68
426.14	11.67
426.601	12.48
427.062	12.55
427.522	12.52
427.983	12.03
428.444	12.36
428.904	11.74
429.365	11.93
429.826	12.74
430.286	11.05
430.747	12.49
431.207	11.68
431.668	12.22
432.128	13.31
432.589	11.68
433.049	13.06
433.509	11.42
433.97	11.82
434.43	13.18
434.89	11.67
435.351	11.99
435.811	12.24
436.271	12.23
436.731	12.65
437.191	12.96
437.651	11.96
438.112	11.86
438.572	9.99
439.032	10.36
439.492	12.29
439.952	11.53
440.412	12.86
440.871	12.58
441.331	12.97
441.791	11.84
442.251	12.91
442.711	11.33
443.171	13.38
443.63	11
444.09	11.33
444.55	12.75
445.009	11.86
445.469	12.15
445.929	10.9
446.388	12.63
446.848	11.39
447.307	12.39
447.767	13.22
448.226	11.58
448.686	12.96
449.145	11.79
449.604	12.72
450.064	12.78
450.523	11.5
450.982	12.13
451.442	11.52
451.901	12.63
452.36	11.88
452.819	11.58
453.278	11.9
453.737	12.09
454.197	11.21
454.656	11.03
455.115	10.76
455.574	12.11
456.033	12.27
456.492	11.18
456.95	12.32
457.409	10.86
457.868	13.49
458.327	11.96
458.786	11.1
459.245	10.84
459.703	12.71
460.162	12.88
460.621	12.02
461.079	11.41
461.538	11.55
461.997	10.9
462.455	11.93
462.914	10.67
463.372	11.86
463.831	11.25
464.289	11.1
464.748	11.7
465.206	12.57
465.664	12
466.123	11.1
466.581	10.52
467.039	11.89
467.497	11.18
467.956	10.48
468.414	10.04
468.872	12.25
469.33	11.79
469.788	12.03
470.246	12.81
470.704	11.92
471.162	11.17
471.62	12.35
472.078	9.95
472.536	11.9
472.994	10.87
473.452	12.41
473.91	11.18
474.368	12.07
474.826	11.62
475.283	11.56
475.741	11.54
476.199	12.86
476.656	10.84
477.114	11.35
477.572	11.45
478.029	9.9
478.487	11.56
478.944	11.26
479.402	11.82
479.859	10.75
480.317	11.01
480.774	12.41
481.232	10.08
481.689	11.06
482.146	12.51
482.604	11.62
483.061	11.02
483.518	11.31
483.975	12.06
484.433	10.62
484.89	10.98
485.347	12.08
485.804	11.53
486.261	9.35
486.718	11.16
487.175	10.87
487.632	12.39
488.089	11.19
488.546	12.61
489.003	11.19
489.46	11.67
489.917	10.52
490.373	11.8
490.83	9.77
491.287	11.33
491.744	12.69
492.2	10.26
492.657	12.83
493.114	11.01
493.57	10.2
494.027	11.84
494.484	11.22
494.94	10.99
495.397	10.82
495.853	11.72
496.31	11.36
496.766	11.02
497.222	12.18
497.679	10.38
498.135	11.66
498.591	10.31
499.048	11.45
499.504	9.38
499.96	10.55
500.416	12.42
500.872	11.87
501.329	11.17
501.785	10.64
502.241	12.19
502.697	11.37
503.153	11.48
503.609	12.1
504.065	11.35
504.521	12.53
504.977	10.25
505.432	11.22
505.888	12.47
506.344	10.64
506.8	12.25
507.256	12.08
507.711	11.64
508.167	11.49
508.623	12.09
509.078	11.95
509.534	10.64
509.99	11.4
510.445	10.47
510.901	12.13
511.356	11.74
511.812	11.9
512.267	11.88
512.722	11.64
513.178	11.88
513.633	11.6
514.089	12.29
514.544	11.41
514.999	11.97
515.454	10.95
515.91	12.22
516.365	11.39
516.82	11.66
517.275	11.06
517.73	12.59
518.185	11.45
518.64	10.75
519.095	10.77
519.55	11.2
520.005	11.04
520.46	11.91
520.915	10.42
521.37	10.95
521.825	10.85
522.28	10.94
522.734	10.78
523.189	11.02
523.644	12.29
524.099	11.55
524.553	11.57
525.008	10.93
525.462	12.26
525.917	12.02
526.372	12.08
526.826	12.34
527.281	11.04
527.735	11.83
528.19	9.99
528.644	12.58
529.098	11.18
529.553	11.58
530.007	11.06
530.461	11.22
530.916	11.44
531.37	11.33
531.824	10.83
532.278	12.32
532.732	10.87
533.186	12.29
533.641	11.27
534.095	11.05
534.549	11.88
535.003	11.28
535.457	10.75
535.911	11
536.365	11.51
536.818	11.21
537.272	10.76
537.726	11.82
538.18	12.01
538.634	10.94
539.087	11.16
539.541	11.34
539.995	11.22
540.449	12.84
540.902	12.16
541.356	11.54
541.809	9.56
542.263	10.05
542.716	11.24
543.17	11.32
543.623	11.01
544.077	12.84
544.53	11.16
544.984	10.43
545.437	10.33
545.89	11.18
546.344	12.12
546.797	10.76
547.25	11.68
547.703	10.76
548.157	11.42
548.61	10
549.063	12.43
549.516	10.61
549.969	10.82
550.422	12.2
550.875	9.97
551.328	10.76
551.781	10.15
552.234	11.05
552.687	11.29
553.14	11.64
553.592	11.47
554.045	11.75
554.498	10.92
554.951	10.87
555.404	12.18
555.856	11.35
556.309	11.79
556.762	10.76
557.214	12.06
557.667	11.56
558.119	11.82
558.572	10.85
559.024	12.3
559.477	11.26
559.929	11.97
560.382	10.95
560.834	11.94
561.286	10.25
561.739	11.23
562.191	11.3
562.643	10.98
563.095	12.41
563.548	11.33
564	12.11
564.452	11.7
564.904	11.59
565.356	11.92
565.808	12.74
566.26	10.79
566.712	11.58
567.164	11.36
567.616	12.13
568.068	12.04
568.52	12.29
568.972	12.19
569.424	11.77
569.876	11.92
570.327	10.98
570.779	11.77
571.231	11.6
571.682	11.65
572.134	11.71
572.586	11.93
573.037	10.6
573.489	11.68
573.941	11.21
574.392	11.46
574.844	11.36
575.295	11.16
575.746	12.11
576.198	12.05
576.649	11.77
577.101	11.45
577.552	11.73
578.003	11.74
578.454	11.82
578.906	11.23
579.357	10.95
579.808	11.63
580.259	10.71
580.71	11.58
581.161	11.03
581.612	11.62
582.064	11.43
582.515	11.35
582.965	12.13
583.416	11.63
583.867	10.6
584.318	11.37
584.769	11.85
585.22	11.88
585.671	11.54
586.122	11.72
586.572	11.03
587.023	11.79
587.474	11.48
587.924	11.28
588.375	11.48
588.826	11.57
589.276	12.15
589.727	11.75
590.177	11.59
590.628	11.45
591.078	11.33
591.529	11.02
591.979	11.74
592.429	11.78
592.88	11.28
593.33	11.9
593.78	12.47
594.231	11.3
594.681	11.52
595.131	11.75
595.581	11.77
596.031	11.35
596.481	11.9
596.932	11.91
597.382	12.06
597.832	11.23
598.282	11.8
598.732	11.64
599.182	11.29
599.632	11.79
600.081	11.64
600.531	11.88
600.981	11.99
601.431	11.05
601.881	12.77
602.33	11.41
602.78	11.67
603.23	11.87
603.679	12.01
604.129	11.71
604.579	12.23
605.028	11.14
605.478	11.6
605.927	11.58
606.377	11.73
606.826	11.49
607.276	11.77
607.725	13.03
608.175	11.65
608.624	11.91
609.073	12.16
609.522	11.39
609.972	11.9
610.421	11.31
610.87	11.48
611.319	11.21
611.768	11.88
612.218	11.71
612.667	11.14
613.116	12.25
613.565	12.44
614.014	11.77
614.463	12.02
614.912	11.46
615.361	12.32
615.81	11.43
616.258	11.85
616.707	11.75
617.156	11.76
617.605	11.56
618.054	11.61
618.502	12.14
618.951	12.04
619.4	11.93
619.848	12.17
620.297	11.69
620.745	11.7
621.194	12.15
621.642	11.65
622.091	11.44
622.539	11.78
622.988	11.73
623.436	12
623.885	11.89
624.333	11.12
624.781	11.97
625.23	11.98
625.678	11.62
626.126	11.51
626.574	12.43
627.022	12.14
627.471	11.53
627.919	11.47
628.367	11.91
628.815	11.88
629.263	12.12
629.711	12.4
630.159	12.45
630.607	11.9
631.055	12.22
631.503	12.25
631.95	12.4
632.398	11.76
632.846	11.9
633.294	12.32
633.742	12.02
634.189	11.83
634.637	12.28
635.085	11.85
635.532	11.89
635.98	12.01
636.427	12.17
636.875	12.72
637.323	12.12
637.77	12.15
638.217	11.93
638.665	11.99
639.112	12.32
639.56	12.16
640.007	11.95
640.454	12.4
640.902	12.03
641.349	12.06
641.796	12.35
642.243	12.17
642.69	11.89
643.138	12.06
643.585	12.3
644.032	11.59
644.479	11.76
644.926	12.17
645.373	12.5
645.82	11.66
646.267	12.37
646.714	12.47
647.161	12.51
647.607	12.33
648.054	12.18
648.501	12.08
648.948	12.23
649.395	12.54
649.841	11.97
650.288	12.52
650.735	12.36
651.181	12.12
651.628	12.53
652.075	11.95
652.521	12.3
652.968	12.26
653.414	12.26
653.861	12.8
654.307	12.43
654.753	12.18
655.2	12.33
655.646	12.45
656.092	12.41
656.539	12.41
656.985	11.73
657.431	12.09
657.877	12.02
658.324	12.13
658.77	12.36
659.216	11.96
659.662	12.31
660.108	12.05
660.554	12.4
661	12.24
661.446	12.72
661.892	12.21
662.338	12.02
662.784	12.75
663.23	12.33
663.675	12.33
664.121	12.38
664.567	12.35
665.013	12.17
665.458	12.36
665.904	12.26
666.35	11.66
666.795	12.4
667.241	12.32
667.687	12.43
668.132	12.42
668.578	12.49
669.023	12.17
669.469	12.12
669.914	11.96
670.359	12.2
670.805	12.23
671.25	12.2
671.695	12.33
672.141	11.98
672.586	12.73
673.031	13.19
673.476	12
673.922	12.81
674.367	11.96
674.812	12.45
675.257	12.61
675.702	12.15
676.147	11.99
676.592	12.58
677.037	12.29
677.482	12.69
677.927	12.58
678.372	12.37
678.817	12.45
679.261	12.31
679.706	12.34
680.151	12.62
680.596	12.15
681.04	12.22
681.485	12.38
681.93	12.3
682.374	12.39
682.819	12.42
683.264	12.43
683.708	12.73
684.153	12.62
684.597	12.55
685.042	12.27
685.486	12.71
685.93	12.29
686.375	12.43
686.819	12.44
687.263	12.58
687.708	12.48
688.152	12.7
688.596	12.54
689.04	12.59
689.485	12.55
689.929	12.33
690.373	12.79
690.817	12.74
691.261	12.75
691.705	12.64
692.149	12.32
692.593	12.77
693.037	12.7
693.481	12.42
693.925	12.6
694.369	12.55
694.812	12.28
695.256	12.6
695.7	12.65
696.144	12.88
696.587	12.57
697.031	13.07
697.475	12.2
697.918	12.78
698.362	12.5
698.806	12.93
699.249	12.57
699.693	12.51
700.136	13.11
700.58	12.39
701.023	12.82
701.466	12.81
701.91	12.51
702.353	12.64
702.796	12.74
703.24	12
703.683	12.62
704.126	13.2
704.569	12.95
705.013	12.94
705.456	12.86
705.899	12.99
706.342	13.32
706.785	12.87
707.228	12.55
707.671	12.76
708.114	13.39
708.557	13.01
709	12.8
709.443	12.94
709.886	12.55
710.328	12.7
710.771	13.1
711.214	13.24
711.657	12.61
712.099	12.87
712.542	13.26
712.985	12.84
713.427	12.75
713.87	12.52
714.313	12.8
714.755	13.04
715.198	13.02
715.64	12.88
716.083	13.15
716.525	12.77
716.967	13.36
717.41	12.77
717.852	13.13
718.295	13.3
718.737	12.42
719.179	13.24
719.621	12.92
720.063	13.23
720.506	13.09
720.948	13.13
721.39	13.2
721.832	13.14
722.274	13.26
722.716	13.28
723.158	12.99
723.6	12.54
724.042	13.54
724.484	13.11
724.926	13.53
725.368	13.29
725.81	13.14
726.251	13
726.693	12.82
727.135	13.04
727.577	13.43
728.018	13.1
728.46	12.82
728.902	13.09
729.343	13.41
729.785	12.99
730.226	12.98
730.668	12.71
731.109	13.43
731.551	12.81
731.992	13.54
732.434	13.21
732.875	13.05
733.316	13.25
733.758	12.65
734.199	13.24
734.64	13.13
735.081	12.94
735.523	13.18
735.964	13.63
736.405	13.3
736.846	13.15
737.287	12.75
737.728	13.14
738.169	12.84
738.61	12.84
739.051	13.59
739.492	12.92
739.933	13.73
740.374	13.2
740.815	13.88
741.256	13.06
741.696	13.39
742.137	13.42
742.578	13.64
743.019	13.34
743.459	13.28
743.9	13.63
744.341	13.4
744.781	13.56
745.222	13.4
745.662	13.63
746.103	12.7
746.543	12.89
746.984	13.51
747.424	13.35
747.865	13.9
748.305	13.2
748.745	13.78
749.186	13.8
749.626	13.08
750.066	13.56
750.506	13.57
750.947	13.41
751.387	13.07
751.827	13.75
752.267	13.63
752.707	13.52
753.147	13.21
753.587	13.7
754.027	13.73
754.467	13.01
754.907	13.33
755.347	13.6
755.787	13.63
756.227	13.7
756.667	13.95
757.107	13.9
757.546	13.65
757.986	13.47
758.426	13.61
758.865	13.69
759.305	13.53
759.745	13.2
760.184	13.8
760.624	13.81
761.063	13.49
761.503	13.27
761.943	13.66
762.382	13.6
762.821	13.49
763.261	13.81
763.7	13.81
764.14	13.66
764.579	13.52
765.018	13.87
765.457	13.34
765.897	13.49
766.336	13.99
766.775	13.82
767.214	13.8
767.653	13.95
768.092	13.92
768.531	13.76
768.97	13.81
769.409	13.43
769.848	13.88
770.287	13.79
770.726	14.06
771.165	13.98
771.604	13.86
772.043	14.01
772.482	13.91
772.92	13.89
773.359	14.02
773.798	14.04
774.237	14.12
774.675	13.92
775.114	14.13
775.553	13.86
775.991	14.17
776.43	14
776.868	13.79
777.307	14.43
777.745	14.02
778.184	14.04
778.622	14.07
779.06	14.1
779.499	14.16
779.937	14.38
780.375	13.87
780.814	14.4
781.252	14.13
781.69	14.26
782.128	13.79
782.566	13.95
783.004	14.07
783.443	14.24
783.881	13.61
784.319	14.03
784.757	14.35
785.195	14.52
785.633	13.99
786.071	14.33
786.508	14.23
786.946	14.27
787.384	13.9
787.822	14.46
788.26	14.15
788.697	14.52
789.135	14.09
789.573	14.08
790.011	14.7
790.448	14.36
790.886	14.49
791.323	13.99
791.761	14.38
792.198	14.18
792.636	14.63
793.073	14.42
793.511	14.38
793.948	14.34
794.386	14.56
794.823	14.06
795.26	14.11
795.698	14.7
796.135	14.46
796.572	14.17
797.009	14.22
797.446	14.65
797.884	14.93
798.321	14.06
798.758	14.58
799.195	14.56
799.632	14.65
800.069	14.28
800.506	14.96
800.943	14.27
801.38	14.63
801.817	14.37
802.254	14.57
802.69	14.33
803.127	14.81
803.564	14.57
804.001	14.5
804.438	14.68
804.874	14.39
805.311	14.56
805.748	14.97
806.184	14.65
806.621	14.61
807.057	14.8
807.494	14.56
807.93	14.47
808.367	14.75
808.803	14.77
809.24	14.42
809.676	14.81
810.112	14.86
810.549	14.84
810.985	14.89
811.421	14.73
811.857	14.95
812.294	14.91
812.73	14.87
813.166	15.21
813.602	14.99
814.038	14.87
814.474	14.93
814.91	14.89
815.346	14.93
815.782	14.73
816.218	14.65
816.654	14.71
817.09	14.79
817.526	14.8
817.962	14.54
818.398	14.97
818.833	15.41
819.269	14.9
819.705	14.79
820.141	15.13
820.576	15.12
821.012	15.35
821.447	15.34
821.883	15.47
822.319	14.94
822.754	15.34
823.19	15.29
823.625	15.01
824.061	15.19
824.496	15.2
824.931	14.84
825.367	15.16
825.802	15.23
826.237	15.02
826.673	15.51
827.108	15.14
827.543	15.21
827.978	15.06
828.413	15.39
828.849	15.21
829.284	15.44
829.719	15.12
830.154	15.16
830.589	15.52
831.024	15.47
831.459	15.58
831.894	15.26
832.329	15.65
832.763	15.61
833.198	15.37
833.633	15.39
834.068	15.32
834.503	15.63
834.937	15.75
835.372	15.83
835.807	15.63
836.241	15.72
836.676	15.56
837.111	15.51
837.545	15.75
837.98	15.67
838.414	15.92
838.849	15.49
839.283	15.87
839.717	16.2
840.152	15.91
840.586	15.72
841.021	15.39
841.455	16.01
841.889	15.49
842.323	15.9
842.758	16.07
843.192	15.6
843.626	15.83
844.06	16.13
844.494	15.81
844.928	15.89
845.362	15.95
845.796	15.84
846.23	16.41
846.664	15.87
847.098	16.02
847.532	15.67
847.966	16.22
848.4	15.84
848.834	16.05
849.267	15.89
849.701	16.17
850.135	15.96
850.569	16.24
851.002	16.14
851.436	16.25
851.87	15.82
852.303	16.33
852.737	16.01
853.17	16.47
853.604	15.98
854.037	16.46
854.471	16
854.904	16.26
855.337	16.14
855.771	16.42
856.204	16.36
856.637	16.25
857.071	16.58
857.504	16.44
857.937	16.38
858.37	16.1
858.804	16.53
859.237	16.57
859.67	16.34
860.103	16.57
860.536	16.1
860.969	16.49
861.402	16.45
861.835	16.88
862.268	16.1
862.701	16.59
863.134	16.42
863.566	16.44
863.999	16.7
864.432	16.74
864.865	16.61
865.298	16.49
865.73	16.89
866.163	16.75
866.596	17.03
867.028	16.58
867.461	16.67
867.893	16.74
868.326	16.77
868.758	16.95
869.191	16.92
869.623	16.86
870.056	16.77
870.488	16.44
870.92	16.78
871.353	16.71
871.785	16.82
872.217	16.6
872.65	16.51
873.082	16.58
873.514	17.33
873.946	16.46
874.378	16.99
874.81	16.68
875.243	16.8
875.675	17.08
876.107	17.09
876.539	16.74
876.971	16.83
877.403	17.4
877.834	16.87
878.266	16.86
878.698	16.89
879.13	17.38
879.562	17.14
879.994	17
880.425	16.87
880.857	17.17
881.289	17.38
881.72	17.31
882.152	17.33
882.584	17.08
883.015	17.61
883.447	17.42
883.878	17.19
884.31	17.32
884.741	17.27
885.173	17.08
885.604	17.18
886.035	17.37
886.467	17.24
886.898	17.07
887.329	17.44
887.76	17.44
888.192	17.39
888.623	17.45
889.054	17.62
889.485	17.65
889.916	17.49
890.347	17.6
890.778	17.49
891.209	17.36
891.64	17.64
892.071	18.07
892.502	17.52
892.933	17.65
893.364	17.48
893.795	17.88
894.226	17.44
894.657	17.38
895.087	17.86
895.518	17.68
895.949	17.75
896.38	17.6
896.81	18.03
897.241	17.76
897.671	18.1
898.102	17.8
898.533	18.11
898.963	18
899.394	17.52
899.824	18.18
900.254	18.02
900.685	18.19
901.115	18.17
901.546	18.25
901.976	18.05
902.406	18.16
902.836	17.84
903.267	18.1
903.697	18.01
904.127	18.09
904.557	18.26
904.987	17.99
905.417	18.07
905.847	18.04
906.277	18.5
906.707	18.27
907.137	18.24
907.567	18.39
907.997	18.29
908.427	18.54
908.857	18.4
909.287	18.45
909.717	18.53
910.146	18.64
910.576	18.86
911.006	18.62
911.436	18.46
911.865	18.7
912.295	18.5
912.724	18.57
913.154	18.62
913.584	18.31
914.013	18.57
914.443	18.65
914.872	18.49
915.302	18.77
915.731	18.71
916.16	18.81
916.59	18.64
917.019	18.62
917.448	18.57
917.878	18.64
918.307	18.7
918.736	18.8
919.165	19.13
919.594	19.06
920.023	19.04
920.452	18.96
920.882	18.86
921.311	19.17
921.74	18.88
922.169	18.92
922.597	19.04
923.026	18.59
923.455	18.99
923.884	18.8
924.313	19.02
924.742	18.95
925.171	18.95
925.599	19.05
926.028	18.89
926.457	19.16
926.885	19.23
927.314	19.2
927.743	19.25
928.171	19.37
928.6	19.21
929.028	19.18
929.457	19.46
929.885	19.19
930.314	19.39
930.742	19.34
931.17	19.67
931.599	19.8
932.027	19.48
932.455	19.05
932.884	19.65
933.312	19.4
933.74	19.59
934.168	19.64
934.596	19.71
935.025	19.52
935.453	19.87
935.881	19.42
936.309	19.66
936.737	19.38
937.165	19.61
937.593	19.55
938.021	19.98
938.449	19.61
938.876	19.94
939.304	19.67
939.732	19.84
940.16	19.76
940.588	19.53
941.015	19.74
941.443	19.32
941.871	19.89
942.298	19.87
942.726	19.81
943.154	19.98
943.581	19.95
944.009	19.98
944.436	20.33
944.864	20.4
945.291	19.75
945.718	19.89
946.146	19.78
946.573	19.75
947.001	19.71
947.428	19.92
947.855	20.49
948.282	19.79
948.71	19.8
949.137	20.26
949.564	20.14
949.991	20.11
950.418	19.93
950.845	20.24
951.272	20.01
951.699	20.4
952.126	20.34
952.553	20.7
952.98	20.45
953.407	20.5
953.834	20.05
954.261	20.67
954.688	20.79
955.114	20.45
955.541	20.51
955.968	20.36
956.395	20.64
956.821	20.74
957.248	20.43
957.674	20.69
958.101	20.91
958.528	20.75
958.954	20.61
959.381	20.89
959.807	21
960.234	21.01
960.66	21
961.086	20.76
961.513	21.11
961.939	20.93
962.365	20.94
962.792	20.69
963.218	20.93
963.644	20.97
964.07	21.22
964.496	20.69
964.923	20.99
965.349	21.14
965.775	21.19
966.201	21.42
966.627	21.22
967.053	21.26
967.479	21.01
967.905	21.4
968.331	21.28
968.756	21.19
969.182	21.49
969.608	21.17
970.034	21.59
970.46	21.22
970.885	21.32
971.311	21.47
971.737	21.48
972.162	21.72
972.588	21.82
973.014	21.49
973.439	21.2
973.865	21.67
974.29	21.55
974.716	21.6
975.141	21.87
975.567	21.89
975.992	21.79
976.417	21.78
976.843	22
977.268	21.65
977.693	21.7
978.119	21.75
978.544	21.74
978.969	21.69
979.394	21.93
979.819	21.65
980.244	21.6
980.669	22
981.095	22.15
981.52	21.81
981.945	22.1
982.369	22.05
982.794	22.19
983.219	22.2
983.644	22.42
984.069	22.35
984.494	22.28
984.919	22.12
985.343	21.93
985.768	22.23
986.193	22.41
986.618	22.5
987.042	22.55
987.467	22.12
987.891	22.44
988.316	22.8
988.741	22.31
989.165	22.18
989.59	22.25
990.014	22.37
990.438	22.47
990.863	22.41
991.287	22.36
991.712	22.66
992.136	22.57
992.56	22.48
992.984	22.6
993.409	22.71
993.833	22.92
994.257	22.8
994.681	22.52
995.105	22.65
995.529	22.78
995.953	22.79
996.377	22.71
996.801	23.08
997.225	22.68
997.649	23.05
998.073	22.93
998.497	22.82
998.921	23.14
999.345	22.86
999.769	22.83
1000.192	22.93
1000.616	23.08
1001.04	23.14
1001.464	23.02
1001.887	22.93
1002.311	22.82
1002.734	23.14
1003.158	23.4
1003.582	23.11
1004.005	23.45
1004.429	23.39
1004.852	23.21
1005.275	23.24
1005.699	23.58
1006.122	23.43
1006.546	23.24
1006.969	23.17
1007.392	23.26
1007.815	23.6
1008.239	23.33
1008.662	23.67
1009.085	23.47
1009.508	23.31
1009.931	23.79
1010.354	23.61
1010.778	23.49
1011.201	23.89
1011.624	23.64
1012.047	23.6
1012.469	23.65
1012.892	23.83
1013.315	23.55
1013.738	23.94
1014.161	23.68
1014.584	23.68
1015.007	23.42
1015.429	23.86
1015.852	23.76
1016.275	23.93
1016.697	23.88
1017.12	24.16
1017.543	23.94
1017.965	23.91
1018.388	23.89
1018.81	23.94
1019.233	23.75
1019.655	24.13
1020.078	24.08
1020.5	23.97
1020.922	24.34
1021.345	24.1
1021.767	23.91
1022.189	24.05
1022.612	24.08
1023.034	24.33
1023.456	24.48
1023.878	24.16
1024.301	24.26
1024.723	24.3
1025.145	24.22
1025.567	24.36
1025.989	24.66
1026.411	24.38
1026.833	24.56
1027.255	24.62
1027.677	24.45
1028.099	24.56
1028.52	24.49
1028.942	24.62
1029.364	24.66
1029.786	24.64
1030.208	24.72
1030.629	24.93
1031.051	24.76
1031.473	24.47
1031.894	24.8
1032.316	24.7
1032.738	24.31
1033.159	24.66
1033.581	25.14
1034.002	24.94
1034.424	25.23
1034.845	25.17
1035.267	25.08
1035.688	25.17
1036.109	25.04
1036.531	24.85
1036.952	25.04
1037.373	25.48
1037.794	25.2
1038.216	25.15
1038.637	25.52
1039.058	25.52
1039.479	25.04
1039.9	24.87
1040.321	25.43
1040.742	25.7
1041.163	25.01
1041.584	25.2
1042.005	25.29
1042.426	25.21
1042.847	25.37
1043.268	25.33
1043.689	25.25
1044.11	26.03
1044.53	25.4
1044.951	25.79
1045.372	25.53
1045.793	25.65
1046.213	25.51
1046.634	25.46
1047.055	26.01
1047.475	25.56
1047.896	25.71
1048.316	25.68
1048.737	26.18
1049.157	26.03
1049.578	25.62
1049.998	26.1
1050.419	25.64
1050.839	26.11
1051.259	26.2
1051.68	25.69
1052.1	25.46
1052.52	25.99
1052.94	25.64
1053.361	26.64
1053.781	26.37
1054.201	26.04
1054.621	25.82
1055.041	26.41
1055.461	26.38
1055.881	26.13
1056.301	26.09
1056.721	26.42
1057.141	26.42
1057.561	26.5
1057.981	26.63
1058.401	26.46
1058.82	26.29
1059.24	26.43
1059.66	26.75
1060.08	26.43
1060.499	26.56
1060.919	26.26
1061.339	25.58
1061.758	26.49
1062.178	26.28
1062.598	26.85
1063.017	26.76
1063.437	27.28
1063.856	26.29
1064.276	27.22
1064.695	26.08
1065.114	26.54
1065.534	26.66
1065.953	26.42
1066.372	26.49
1066.792	26.14
1067.211	27.13
1067.63	27.06
1068.049	26.2
1068.469	27.18
1068.888	27.71
1069.307	26.27
1069.726	27.12
1070.145	27.03
1070.564	27.71
1070.983	26.46
1071.402	27.25
1071.821	27.17
1072.24	26.87
1072.659	26.75
1073.078	27.35
1073.496	26.96
1073.915	27.16
1074.334	27.95
1074.753	26.72
1075.171	27.95
1075.59	26.44
1076.009	27.59
1076.427	27.09
1076.846	27.02
1077.265	27.4
1077.683	27.05
1078.102	28.14
1078.52	27.43
1078.939	26.89
1079.357	27.62
1079.776	27.03
1080.194	27.01
1080.612	27.38
1081.031	26.9
1081.449	27.51
1081.867	27.14
1082.285	27.48
1082.704	26.79
1083.122	27.96
1083.54	27.97
1083.958	27.44
1084.376	27.28
1084.794	27.92
1085.212	28
1085.63	27.47
1086.048	27.71
1086.466	26.98
1086.884	27.54
1087.302	26.93
1087.72	27.74
1088.138	28.68
1088.555	27.88
1088.973	28.27
1089.391	27.84
1089.809	27.32
1090.226	28.23
1090.644	28.97
1091.062	27.95
1091.479	27.09
1091.897	27.36
1092.314	28.61
1092.732	27.38
1093.15	27.79
1093.567	28.38
1093.984	27.62
1094.402	27.87
1094.819	29.06
1095.237	28.46
1095.654	27.33
1096.071	27.37
1096.488	27.77
1096.906	28.43
1097.323	27.46
1097.74	28.31
1098.157	29.33
1098.574	28.08
1098.991	29.31
1099.409	26.3
1099.826	29.72
1100.243	28.24
1100.66	28.68
1101.077	27.43
1101.494	27.84
1101.91	28.63
1102.327	28.09
1102.744	28.5
1103.161	29.99
1103.578	27.64
1103.994	28.23
1104.411	28.88
1104.828	29.36
1105.245	29.6
1105.661	28.67
1106.078	27.88
1106.494	28.76
1106.911	28.35
1107.328	28.5
1107.744	30
1108.161	27.81
1108.577	27.14
1108.993	28.17
1109.41	29.23
1109.826	29.55
1110.242	28.35
1110.659	30.14
1111.075	28.92
1111.491	28.15
1111.908	29.51
1112.324	29.69
1112.74	32.3
1113.156	26.59
1113.572	28.52
1113.988	27.48
1114.404	28.17
1114.82	26.17
1115.236	26.33
1115.652	28.24
1116.068	29.31
1116.484	27.1
1116.9	26.67
1117.316	29.03
1117.732	3.85
1118.147	41.67
1118.563	37.5
1118.979	-450
