Data from JCR0011_WhiteVentral_Reflection_00001.txt Node
Date: Thu Jul 23 13:34:15 ACST 2020
User: Stacey Dix
Spectrometer: MAYP113282
Scans to average: 1
Trigger mode: 0
Integration Time (sec): 1.000000E-1
Electric dark correction enabled: true
Boxcar width: 0
XAxis mode: Wavelengths
Number of Pixels in Spectrum: 2068
>>>>>Begin Spectral Data<<<<<
198.791	-646.87
199.266	-114.71
199.74	-28.12
200.215	-281.25
200.69	76.58
201.164	79.6
201.639	53.99
202.114	55.57
202.588	57.47
203.063	55.19
203.537	46.76
204.012	50.1
204.486	49.49
204.961	47.88
205.435	43.19
205.909	51.75
206.384	50.09
206.858	55.84
207.332	50.08
207.807	60.62
208.281	56.5
208.755	48.05
209.229	38.76
209.703	50.34
210.177	47.15
210.651	47.33
211.126	53.31
211.6	51.85
212.074	51.37
212.548	36.63
213.021	41.91
213.495	38.68
213.969	43.81
214.443	39.61
214.917	44.27
215.391	48.73
215.864	40.85
216.338	51.24
216.812	38.89
217.286	38.91
217.759	32.85
218.233	39.68
218.706	29.7
219.18	40.16
219.654	35.19
220.127	36.89
220.6	31.38
221.074	35.33
221.547	26.7
222.021	32.41
222.494	31.22
222.967	28.78
223.441	29.64
223.914	29.74
224.387	25.61
224.86	26.81
225.334	27.48
225.807	25.31
226.28	26.67
226.753	23.63
227.226	22.81
227.699	21.57
228.172	22.57
228.645	22.05
229.118	20.29
229.591	21.32
230.064	19.21
230.537	18.82
231.01	20.95
231.482	20.86
231.955	20.17
232.428	18.44
232.901	18.7
233.373	18.04
233.846	18.49
234.319	17.3
234.791	17.61
235.264	17.06
235.736	17.04
236.209	16.42
236.681	17.81
237.154	17.04
237.626	16.72
238.099	16.64
238.571	15.51
239.044	18.05
239.516	15.43
239.988	15.8
240.46	16.46
240.933	16.12
241.405	16.34
241.877	15.17
242.349	16.38
242.821	14.71
243.293	14.98
243.765	15.05
244.237	16.69
244.71	15.69
245.181	15.36
245.653	14.77
246.125	15.39
246.597	14.43
247.069	14.79
247.541	14.88
248.013	15.02
248.485	15.45
248.956	14.31
249.428	14.19
249.9	14.77
250.371	14.14
250.843	13.89
251.315	13.11
251.786	13.5
252.258	14.12
252.729	14.28
253.201	13.82
253.672	13.6
254.144	12.54
254.615	12.96
255.086	13.07
255.558	12.88
256.029	13.1
256.5	13.41
256.972	13.4
257.443	12.94
257.914	12.91
258.385	13.08
258.856	13.19
259.327	13.12
259.799	13
260.27	13.16
260.741	13.18
261.212	12.96
261.683	13.72
262.154	12.88
262.624	12.51
263.095	13.47
263.566	13.25
264.037	12.91
264.508	13.03
264.979	12.93
265.449	13.64
265.92	13.19
266.391	13.36
266.861	13.52
267.332	13.12
267.803	13.05
268.273	13.13
268.744	12.93
269.214	13.05
269.685	13.2
270.155	13
270.626	13.47
271.096	12.84
271.566	13.23
272.037	12.79
272.507	12.71
272.977	12.96
273.448	13.39
273.918	12.82
274.388	12.82
274.858	13.45
275.328	13.28
275.798	13.39
276.268	12.46
276.738	13.07
277.208	13.1
277.678	13.2
278.148	13.46
278.618	13.78
279.088	13.29
279.558	12.13
280.028	14.01
280.498	12.89
280.968	13.16
281.437	13.54
281.907	13.25
282.377	12.89
282.847	12.55
283.316	12.48
283.786	12.66
284.255	13.08
284.725	12.86
285.194	12.87
285.664	12.64
286.133	13.12
286.603	12.77
287.072	12.88
287.542	12.9
288.011	12.79
288.48	12.89
288.95	12.47
289.419	12.89
289.888	12.74
290.357	13.07
290.827	13.32
291.296	13.42
291.765	12.44
292.234	12.79
292.703	13.15
293.172	13.48
293.641	12.78
294.11	13.04
294.579	13.18
295.048	13.05
295.517	13.93
295.986	13.33
296.455	13.77
296.923	13.44
297.392	13.55
297.861	13.08
298.33	13.24
298.798	13.62
299.267	13.68
299.736	14.15
300.204	13.2
300.673	13.92
301.141	13.74
301.61	14.3
302.079	14.46
302.547	13.53
303.015	13.85
303.484	13.86
303.952	13.97
304.421	14.61
304.889	13.8
305.357	14.8
305.825	14.98
306.294	14.07
306.762	15.03
307.23	14.7
307.698	13.98
308.166	14.92
308.634	14.4
309.103	15.2
309.571	14.84
310.039	14.51
310.507	14.11
310.975	15.02
311.442	14.75
311.91	14.36
312.378	15.59
312.846	14.44
313.314	14.94
313.782	14.71
314.249	15.46
314.717	15.42
315.185	15.06
315.652	15.58
316.12	15.42
316.588	15.11
317.055	15.67
317.523	14.36
317.99	14.98
318.458	15.81
318.925	15.34
319.393	15.44
319.86	14.6
320.328	14.91
320.795	15.28
321.262	16.36
321.73	15.54
322.197	16.48
322.664	15.87
323.131	16
323.598	16.74
324.066	17.17
324.533	16.22
325	16.75
325.467	17.65
325.934	18.4
326.401	18.64
326.868	18.79
327.335	18.57
327.802	19.98
328.269	19.72
328.735	20.01
329.202	20.92
329.669	20.94
330.136	21.66
330.603	21.94
331.069	22.16
331.536	22.33
332.003	23.21
332.469	23.6
332.936	23.36
333.402	23.36
333.869	24.63
334.336	24.98
334.802	24.19
335.268	25.03
335.735	25.24
336.201	26.05
336.668	25.62
337.134	26.11
337.6	26.52
338.067	25.27
338.533	25.09
338.999	24.82
339.465	25.84
339.931	25.49
340.398	25.93
340.864	26.11
341.33	25.1
341.796	25.78
342.262	26.02
342.728	25.81
343.194	26.47
343.66	26.06
344.126	26.78
344.592	26.14
345.057	25.95
345.523	26.58
345.989	26.03
346.455	25.63
346.921	25.26
347.386	25.16
347.852	26.32
348.318	25.24
348.783	25.56
349.249	24.88
349.714	26.21
350.18	26.13
350.645	26.85
351.111	26.09
351.576	25.76
352.042	25.84
352.507	25.98
352.973	26.3
353.438	26.32
353.903	26.06
354.369	24.92
354.834	25.55
355.299	25.73
355.764	26.23
356.229	25.98
356.695	25.45
357.16	25.25
357.625	25.44
358.09	26.29
358.555	26.39
359.02	26.61
359.485	25.32
359.95	26.73
360.415	26.16
360.879	26.15
361.344	26.59
361.809	26.19
362.274	26.48
362.739	26.37
363.203	26.11
363.668	26.75
364.133	26.24
364.597	27.05
365.062	25.7
365.527	26.1
365.991	26.93
366.456	26.18
366.92	25.95
367.385	27.1
367.849	26.63
368.314	26.88
368.778	27.39
369.242	27.27
369.707	26.95
370.171	26.6
370.635	27.59
371.1	27.03
371.564	26.24
372.028	27.88
372.492	26.44
372.956	26.46
373.42	27.64
373.884	26.91
374.348	26.22
374.812	27.13
375.276	26.85
375.74	28.08
376.204	27.24
376.668	27.55
377.132	27.95
377.596	26.9
378.06	27.99
378.524	27.7
378.987	27.61
379.451	27.91
379.915	28.95
380.378	27.23
380.842	28.33
381.306	27.99
381.769	27.44
382.233	28.21
382.696	27
383.16	28.56
383.623	27.63
384.087	28.77
384.55	28.12
385.014	27.91
385.477	27.89
385.94	28.49
386.404	28.42
386.867	28.15
387.33	28.01
387.793	28.83
388.256	27.76
388.72	28.08
389.183	27.69
389.646	28.45
390.109	28.43
390.572	28.6
391.035	27.96
391.498	28.43
391.961	28.19
392.424	28.55
392.887	29.14
393.35	29.34
393.812	28.64
394.275	28.29
394.738	28.67
395.201	27.85
395.664	28.76
396.126	28.25
396.589	28.68
397.052	28.69
397.514	29.8
397.977	28.65
398.439	30.23
398.902	29.23
399.364	28.47
399.827	29.98
400.289	29.6
400.752	28.75
401.214	28.79
401.676	28.62
402.139	28.95
402.601	29.51
403.063	28.16
403.525	28.92
403.988	28.91
404.45	29.29
404.912	29.21
405.374	29.29
405.836	29.49
406.298	28.64
406.76	29.21
407.222	28.51
407.684	28.44
408.146	27.89
408.608	29.53
409.07	28.52
409.532	28.4
409.994	28.29
410.456	29.67
410.917	29.97
411.379	29.35
411.841	29.24
412.303	28.19
412.764	29.38
413.226	28.85
413.687	29.68
414.149	29.48
414.611	29.05
415.072	29.48
415.534	29.44
415.995	29.94
416.457	29.44
416.918	30.12
417.379	29.01
417.841	29.21
418.302	29.36
418.763	29.92
419.225	30.46
419.686	29.97
420.147	29.87
420.608	30.02
421.069	30.48
421.53	30.42
421.991	30.27
422.453	29.75
422.914	30.58
423.375	29.82
423.836	30.34
424.297	30.17
424.757	30.2
425.218	30.01
425.679	30.74
426.14	30.53
426.601	29.49
427.062	30.34
427.522	31.94
427.983	32.19
428.444	30.35
428.904	31.16
429.365	30.93
429.826	32.37
430.286	31.6
430.747	31.14
431.207	31.47
431.668	32.33
432.128	31.44
432.589	30.71
433.049	31.34
433.509	31.65
433.97	32.12
434.43	32.15
434.89	31.96
435.351	30.6
435.811	32.02
436.271	30.73
436.731	31.07
437.191	31.96
437.651	31.45
438.112	31.95
438.572	31.53
439.032	30.9
439.492	30.72
439.952	32.02
440.412	31.92
440.871	32.75
441.331	30.62
441.791	31.16
442.251	31.27
442.711	31.18
443.171	31.45
443.63	30.72
444.09	30.77
444.55	31.92
445.009	31.03
445.469	31.68
445.929	32.27
446.388	31.43
446.848	31.89
447.307	31.51
447.767	31.93
448.226	32.38
448.686	31.63
449.145	31.37
449.604	31.42
450.064	32.34
450.523	32.01
450.982	32.37
451.442	31.25
451.901	32.07
452.36	30.93
452.819	32.2
453.278	30.52
453.737	31.22
454.197	32.02
454.656	31.97
455.115	31.97
455.574	31.96
456.033	32.99
456.492	32.71
456.95	31.9
457.409	32.7
457.868	31.35
458.327	33.27
458.786	34.17
459.245	32.43
459.703	32.32
460.162	32.99
460.621	32.4
461.079	31.81
461.538	31.87
461.997	32.66
462.455	31.93
462.914	34.22
463.372	32.29
463.831	33.24
464.289	32.28
464.748	33.55
465.206	32.74
465.664	32.64
466.123	33.19
466.581	32.59
467.039	32.93
467.497	33.72
467.956	32.47
468.414	34.38
468.872	35.28
469.33	33.23
469.788	33.5
470.246	34.11
470.704	34.27
471.162	33.01
471.62	34.45
472.078	33.56
472.536	34.65
472.994	35.1
473.452	32.88
473.91	33.68
474.368	33.08
474.826	33.01
475.283	35.02
475.741	33.56
476.199	33.83
476.656	34.12
477.114	33.76
477.572	34.76
478.029	35.07
478.487	34.24
478.944	35.57
479.402	33.57
479.859	33.68
480.317	33.88
480.774	33.96
481.232	34.97
481.689	33.62
482.146	34.02
482.604	33.31
483.061	35.27
483.518	33.26
483.975	33.57
484.433	33.69
484.89	34.51
485.347	34.37
485.804	35.12
486.261	34.82
486.718	33.84
487.175	34.54
487.632	35.13
488.089	36.21
488.546	33.49
489.003	34.82
489.46	34.48
489.917	35.29
490.373	33.86
490.83	34.86
491.287	35.95
491.744	34.11
492.2	35.04
492.657	35.49
493.114	34.2
493.57	33.65
494.027	34.39
494.484	35.98
494.94	34.05
495.397	34.62
495.853	35.01
496.31	34.71
496.766	35.62
497.222	33.42
497.679	34.72
498.135	34.82
498.591	34.05
499.048	35.43
499.504	33.5
499.96	34.16
500.416	34.71
500.872	35.33
501.329	34.56
501.785	34.37
502.241	35.01
502.697	35.25
503.153	33.22
503.609	35.04
504.065	35.77
504.521	33.89
504.977	35.54
505.432	35.4
505.888	35.55
506.344	33.58
506.8	35.23
507.256	35.05
507.711	34.93
508.167	35
508.623	34.77
509.078	35.46
509.534	34.74
509.99	35.17
510.445	35.12
510.901	34.56
511.356	34.08
511.812	35.03
512.267	34.48
512.722	34.24
513.178	34.79
513.633	34.28
514.089	34.72
514.544	34.5
514.999	34.81
515.454	35.27
515.91	34.08
516.365	35.59
516.82	35.52
517.275	34.43
517.73	35.83
518.185	33.72
518.64	33.96
519.095	34.13
519.55	34.86
520.005	34.57
520.46	34.04
520.915	34.69
521.37	34.76
521.825	34.17
522.28	33.93
522.734	34.39
523.189	34.64
523.644	34.42
524.099	34.59
524.553	35
525.008	35.86
525.462	34.1
525.917	34.98
526.372	34.53
526.826	34.68
527.281	34.89
527.735	35.93
528.19	34.74
528.644	35.2
529.098	35.33
529.553	36.37
530.007	35.11
530.461	35.22
530.916	35.6
531.37	36.03
531.824	33.88
532.278	35.05
532.732	35.8
533.186	34.29
533.641	35.06
534.095	34.61
534.549	35.65
535.003	35.51
535.457	34.93
535.911	35.86
536.365	36.53
536.818	34.41
537.272	34.19
537.726	33.84
538.18	35.75
538.634	34.29
539.087	35.63
539.541	36.12
539.995	35.71
540.449	34.68
540.902	36.1
541.356	35.2
541.809	36.56
542.263	35.26
542.716	35.54
543.17	34.82
543.623	36.14
544.077	36.14
544.53	35.69
544.984	35.54
545.437	35.37
545.89	35.96
546.344	34.77
546.797	34.61
547.25	33.77
547.703	34.13
548.157	35.42
548.61	35.43
549.063	35.65
549.516	35.8
549.969	34.05
550.422	35.99
550.875	35.11
551.328	35.37
551.781	35.16
552.234	35.45
552.687	36.82
553.14	35.9
553.592	34.99
554.045	35.31
554.498	36.37
554.951	36.23
555.404	35.52
555.856	35.4
556.309	35.78
556.762	35.51
557.214	35.93
557.667	35.58
558.119	35.44
558.572	35.32
559.024	35.97
559.477	35.48
559.929	36.14
560.382	35.47
560.834	34.82
561.286	35.07
561.739	35.29
562.191	34.06
562.643	35.16
563.095	35.79
563.548	35.37
564	35.98
564.452	35.84
564.904	35.28
565.356	34.6
565.808	35.07
566.26	34.95
566.712	34.73
567.164	35.45
567.616	36.32
568.068	35.85
568.52	34.98
568.972	35.01
569.424	35.01
569.876	35.59
570.327	34.69
570.779	35.08
571.231	35.19
571.682	35.5
572.134	35.28
572.586	34.94
573.037	34.92
573.489	34.8
573.941	35.52
574.392	35.79
574.844	35.34
575.295	35.28
575.746	35.42
576.198	36.47
576.649	35.41
577.101	34.83
577.552	34.59
578.003	35.52
578.454	35.13
578.906	34.97
579.357	34.94
579.808	35.56
580.259	34.8
580.71	35.32
581.161	35.87
581.612	35.82
582.064	34.67
582.515	35.22
582.965	35.63
583.416	34.87
583.867	35.22
584.318	35.98
584.769	35.26
585.22	35.01
585.671	35.49
586.122	34.75
586.572	35.38
587.023	35.71
587.474	36.11
587.924	35.58
588.375	35.06
588.826	35.48
589.276	35.83
589.727	34.91
590.177	35.44
590.628	35.26
591.078	35.68
591.529	35.38
591.979	34.74
592.429	35.56
592.88	35.53
593.33	35.73
593.78	36.24
594.231	35.42
594.681	35.17
595.131	35.53
595.581	34.68
596.031	35.54
596.481	34.97
596.932	36.32
597.382	35.38
597.832	34.61
598.282	36.49
598.732	35
599.182	34.98
599.632	35.75
600.081	35.83
600.531	35.2
600.981	34.86
601.431	35.65
601.881	34.98
602.33	35.27
602.78	35.26
603.23	35.09
603.679	35.42
604.129	35.54
604.579	34.91
605.028	34.96
605.478	35.45
605.927	35.82
606.377	36.17
606.826	35.67
607.276	35.12
607.725	35.59
608.175	35.31
608.624	34.99
609.073	36.04
609.522	35.37
609.972	35.67
610.421	35.15
610.87	35.31
611.319	35.25
611.768	36.03
612.218	36.38
612.667	36.1
613.116	35.17
613.565	35.73
614.014	34.53
614.463	36.22
614.912	35.97
615.361	34.92
615.81	35.57
616.258	35.73
616.707	35.29
617.156	35.43
617.605	34.71
618.054	35.41
618.502	35.25
618.951	35.23
619.4	35.27
619.848	35.17
620.297	35.03
620.745	35.19
621.194	34.92
621.642	35.04
622.091	35.5
622.539	35.21
622.988	35.39
623.436	34.59
623.885	34.65
624.333	34.6
624.781	35.04
625.23	34.75
625.678	35.2
626.126	34.86
626.574	34.34
627.022	34.92
627.471	35.38
627.919	34.75
628.367	35.04
628.815	35.26
629.263	35.58
629.711	34.64
630.159	35.09
630.607	34.72
631.055	35.49
631.503	34.06
631.95	34.72
632.398	34.67
632.846	34.71
633.294	35.44
633.742	34.9
634.189	35.55
634.637	35.56
635.085	34.77
635.532	35.35
635.98	35.08
636.427	34.73
636.875	35
637.323	35.61
637.77	35.79
638.217	34.92
638.665	34.89
639.112	35.22
639.56	34.59
640.007	35.59
640.454	34.3
640.902	35.2
641.349	35.82
641.796	35.55
642.243	34.88
642.69	35.7
643.138	36.18
643.585	35.14
644.032	34.69
644.479	35.23
644.926	35.28
645.373	35.31
645.82	35.09
646.267	35.11
646.714	34.81
647.161	35.04
647.607	34.76
648.054	35.42
648.501	34.84
648.948	34.76
649.395	34.94
649.841	35.51
650.288	34.47
650.735	35.05
651.181	34.67
651.628	35.35
652.075	35.22
652.521	34.52
652.968	35
653.414	34.91
653.861	35.46
654.307	35.15
654.753	34.78
655.2	35.57
655.646	34.62
656.092	34.87
656.539	35.34
656.985	34.8
657.431	35.19
657.877	34.82
658.324	34.88
658.77	35.06
659.216	35.01
659.662	35.05
660.108	35.15
660.554	34.78
661	34.88
661.446	34.52
661.892	34.62
662.338	34.93
662.784	35.18
663.23	34.55
663.675	36.19
664.121	34.94
664.567	34.82
665.013	35.08
665.458	34.85
665.904	34.68
666.35	35
666.795	35.35
667.241	34.6
667.687	35.11
668.132	34.95
668.578	35.28
669.023	34.37
669.469	34.69
669.914	34.84
670.359	35.01
670.805	35.13
671.25	35.34
671.695	34.89
672.141	34.83
672.586	35.3
673.031	34.81
673.476	35
673.922	35.4
674.367	34.89
674.812	35.21
675.257	34.81
675.702	34.96
676.147	35.05
676.592	34.71
677.037	34.63
677.482	34.87
677.927	34.84
678.372	34.86
678.817	35.15
679.261	35.72
679.706	34.97
680.151	34.28
680.596	34.31
681.04	34.36
681.485	34.43
681.93	35.14
682.374	34.72
682.819	34.74
683.264	35.1
683.708	34.83
684.153	35.02
684.597	35.18
685.042	35.09
685.486	35.2
685.93	34.88
686.375	34.77
686.819	34.86
687.263	35.4
687.708	34.35
688.152	34.46
688.596	34.4
689.04	34.87
689.485	35.32
689.929	35.42
690.373	35.06
690.817	34.76
691.261	34.66
691.705	34.08
692.149	34.58
692.593	35.18
693.037	34.99
693.481	34.93
693.925	34.65
694.369	34.63
694.812	34.42
695.256	34.67
695.7	34.71
696.144	34.82
696.587	34.91
697.031	34.03
697.475	34.42
697.918	34.81
698.362	35
698.806	34.52
699.249	34.63
699.693	34.92
700.136	34.95
700.58	35.07
701.023	35.41
701.466	35.01
701.91	35.17
702.353	34.91
702.796	34.8
703.24	35.09
703.683	34.96
704.126	35.36
704.569	34.59
705.013	34.5
705.456	35.11
705.899	34.23
706.342	34.91
706.785	33.89
707.228	34.22
707.671	34.67
708.114	34.23
708.557	34.39
709	34.85
709.443	33.7
709.886	34.03
710.328	34.33
710.771	33.89
711.214	34.29
711.657	34.26
712.099	33.89
712.542	35.01
712.985	35.02
713.427	34.18
713.87	34.37
714.313	34.52
714.755	34.15
715.198	34.44
715.64	34.51
716.083	34.54
716.525	34.41
716.967	34.11
717.41	34.84
717.852	34.9
718.295	34.64
718.737	35.18
719.179	34.82
719.621	34.75
720.063	34.7
720.506	34.55
720.948	34.79
721.39	34.8
721.832	34.68
722.274	34.39
722.716	34.75
723.158	34.33
723.6	33.75
724.042	34.64
724.484	33.98
724.926	34.24
725.368	33.99
725.81	33.94
726.251	34.55
726.693	34.52
727.135	34.28
727.577	35.07
728.018	34.78
728.46	34.48
728.902	34.36
729.343	34.36
729.785	34.72
730.226	34.54
730.668	34.29
731.109	34.87
731.551	35.1
731.992	34.75
732.434	34.04
732.875	34.79
733.316	34.83
733.758	34.83
734.199	34.2
734.64	34.63
735.081	34.09
735.523	34.76
735.964	34.3
736.405	34.94
736.846	34.27
737.287	34.14
737.728	33.83
738.169	34.33
738.61	34.57
739.051	34.36
739.492	34.37
739.933	34.02
740.374	34.26
740.815	34.36
741.256	34.74
741.696	34.12
742.137	33.86
742.578	34.43
743.019	33.72
743.459	34.48
743.9	33.75
744.341	33.94
744.781	34.68
745.222	34.22
745.662	33.75
746.103	33.46
746.543	34.01
746.984	34.73
747.424	33.77
747.865	33.61
748.305	33.67
748.745	33.6
749.186	34.74
749.626	33.6
750.066	34.02
750.506	34.82
750.947	34.15
751.387	33.77
751.827	34.51
752.267	34.46
752.707	34.28
753.147	34.41
753.587	34.66
754.027	34.64
754.467	34.25
754.907	34.41
755.347	34.23
755.787	34.29
756.227	33.76
756.667	34.33
757.107	34.36
757.546	34.3
757.986	34.24
758.426	33.4
758.865	34.33
759.305	34.42
759.745	33.83
760.184	33.75
760.624	34.63
761.063	33.81
761.503	34.39
761.943	33.95
762.382	34.39
762.821	33.61
763.261	34.11
763.7	34.56
764.14	34.25
764.579	34.47
765.018	34.2
765.457	33.72
765.897	33.94
766.336	34.34
766.775	34.41
767.214	34.48
767.653	33.78
768.092	34.07
768.531	34.3
768.97	34.49
769.409	34.39
769.848	33.78
770.287	33.89
770.726	34.24
771.165	34.77
771.604	35.07
772.043	33.91
772.482	33.95
772.92	34.5
773.359	34.8
773.798	34.1
774.237	34.29
774.675	34.44
775.114	35.01
775.553	34.47
775.991	34.29
776.43	33.87
776.868	33.53
777.307	34.39
777.745	33.5
778.184	34.11
778.622	33.93
779.06	33.69
779.499	33.8
779.937	34.07
780.375	33.84
780.814	34.22
781.252	33.48
781.69	33.27
782.128	33.63
782.566	33.06
783.004	33.78
783.443	33.68
783.881	33.69
784.319	33.97
784.757	33.76
785.195	33.57
785.633	33.85
786.071	33.91
786.508	33.85
786.946	33.89
787.384	33.63
787.822	33.92
788.26	33.73
788.697	33.84
789.135	33.78
789.573	34.11
790.011	33.69
790.448	33.92
790.886	33.73
791.323	34.06
791.761	33.71
792.198	33.64
792.636	34.14
793.073	33.82
793.511	34.04
793.948	34.08
794.386	34.16
794.823	34.16
795.26	34.25
795.698	34.1
796.135	34.1
796.572	33.75
797.009	33.99
797.446	33.68
797.884	33.97
798.321	34.06
798.758	33.69
799.195	33.62
799.632	34.2
800.069	33.99
800.506	34.2
800.943	34.09
801.38	33.83
801.817	33.84
802.254	33.75
802.69	33.49
803.127	33.9
803.564	33.81
804.001	33.62
804.438	33.76
804.874	33.21
805.311	33.85
805.748	33.59
806.184	33.65
806.621	33.57
807.057	33.97
807.494	33.83
807.93	33.16
808.367	33.72
808.803	33.86
809.24	33.6
809.676	33.69
810.112	33.47
810.549	33.39
810.985	33.87
811.421	34.11
811.857	33.87
812.294	34.16
812.73	34.09
813.166	33.96
813.602	34.04
814.038	33.92
814.474	33.67
814.91	33.76
815.346	34.13
815.782	33.89
816.218	33.64
816.654	33.71
817.09	33.86
817.526	33.5
817.962	34.39
818.398	33.58
818.833	34.6
819.269	33.77
819.705	33.71
820.141	33.86
820.576	33.77
821.012	33.47
821.447	33.87
821.883	33.25
822.319	33.39
822.754	33.79
823.19	33.62
823.625	33.18
824.061	33.83
824.496	33.94
824.931	33.17
825.367	33.79
825.802	34.09
826.237	34.05
826.673	33.45
827.108	34.14
827.543	33.66
827.978	33.54
828.413	33.67
828.849	33.56
829.284	33.43
829.719	33.78
830.154	34.27
830.589	33.85
831.024	33.64
831.459	33.93
831.894	33.42
832.329	34.06
832.763	33.82
833.198	33.57
833.633	33.6
834.068	33.69
834.503	33.92
834.937	33.42
835.372	34.07
835.807	33.44
836.241	33.39
836.676	33.55
837.111	33.53
837.545	33.58
837.98	33.6
838.414	34.09
838.849	33.52
839.283	33.81
839.717	33.87
840.152	33.88
840.586	33.72
841.021	33.67
841.455	33.83
841.889	34.09
842.323	33.42
842.758	33.73
843.192	33.45
843.626	33.78
844.06	33.4
844.494	33.81
844.928	33.34
845.362	33.26
845.796	33.5
846.23	33.62
846.664	33.22
847.098	33.63
847.532	33.45
847.966	33.49
848.4	33.27
848.834	33.6
849.267	33.37
849.701	33.36
850.135	33.36
850.569	33.27
851.002	33.47
851.436	32.91
851.87	32.77
852.303	33.37
852.737	32.97
853.17	33.04
853.604	33.4
854.037	33.35
854.471	32.97
854.904	32.86
855.337	33.27
855.771	33.13
856.204	33.13
856.637	33.31
857.071	33.23
857.504	33.38
857.937	33.68
858.37	33.36
858.804	33.31
859.237	33.66
859.67	33.42
860.103	33.44
860.536	33.38
860.969	33.52
861.402	33.12
861.835	33.47
862.268	33.45
862.701	33.11
863.134	33.15
863.566	33.27
863.999	33.38
864.432	33.33
864.865	33.39
865.298	33.66
865.73	33.34
866.163	33.56
866.596	33.31
867.028	33.38
867.461	33.16
867.893	33.51
868.326	33.11
868.758	33.48
869.191	33.33
869.623	33.33
870.056	33.31
870.488	33.55
870.92	33.34
871.353	33.04
871.785	33.26
872.217	33.46
872.65	33.41
873.082	33.17
873.514	33.07
873.946	32.94
874.378	33.54
874.81	33.05
875.243	33.08
875.675	32.99
876.107	33.48
876.539	33.13
876.971	33.05
877.403	33.19
877.834	33.2
878.266	33.28
878.698	33.24
879.13	33.29
879.562	33.33
879.994	33.19
880.425	33.22
880.857	33.2
881.289	32.92
881.72	33.29
882.152	33.32
882.584	33.49
883.015	32.96
883.447	33.04
883.878	33.43
884.31	33.24
884.741	33.72
885.173	33.46
885.604	33.04
886.035	33.21
886.467	33.45
886.898	33.25
887.329	33.3
887.76	33.16
888.192	33.52
888.623	33.26
889.054	33.38
889.485	33.27
889.916	33.05
890.347	33.31
890.778	33.31
891.209	33.13
891.64	33.28
892.071	33.51
892.502	33.24
892.933	33.25
893.364	33.09
893.795	33.19
894.226	33.11
894.657	32.98
895.087	32.99
895.518	33.05
895.949	33.11
896.38	33.02
896.81	33.36
897.241	32.98
897.671	33.15
898.102	33.05
898.533	33.18
898.963	32.82
899.394	33.03
899.824	33.04
900.254	32.63
900.685	32.88
901.115	33.04
901.546	33.12
901.976	32.67
902.406	32.73
902.836	32.94
903.267	32.92
903.697	33.3
904.127	33.04
904.557	32.96
904.987	33.02
905.417	33.12
905.847	32.83
906.277	32.98
906.707	33.02
907.137	32.86
907.567	33.02
907.997	33.12
908.427	32.93
908.857	33.3
909.287	32.73
909.717	32.92
910.146	33.45
910.576	33.15
911.006	32.84
911.436	33.19
911.865	33.25
912.295	32.85
912.724	33.48
913.154	33.03
913.584	33.5
914.013	33.4
914.443	33.44
914.872	33.23
915.302	33.29
915.731	33.48
916.16	33.35
916.59	33.15
917.019	33.19
917.448	33.11
917.878	33.2
918.307	33.11
918.736	33.09
919.165	33.09
919.594	33.07
920.023	33.04
920.452	33.11
920.882	33.07
921.311	32.8
921.74	33.13
922.169	33.27
922.597	33.29
923.026	33.15
923.455	33.18
923.884	32.69
924.313	33.05
924.742	32.86
925.171	33.05
925.599	32.74
926.028	33.07
926.457	32.76
926.885	32.88
927.314	32.9
927.743	32.95
928.171	32.32
928.6	32.81
929.028	32.7
929.457	32.73
929.885	32.61
930.314	32.41
930.742	32.86
931.17	32.48
931.599	32.32
932.027	32.73
932.455	32.51
932.884	32.75
933.312	32.48
933.74	32.54
934.168	32.39
934.596	32.25
935.025	32.47
935.453	32.19
935.881	32.66
936.309	32.06
936.737	32.13
937.165	31.91
937.593	32.21
938.021	32.04
938.449	32.12
938.876	32.21
939.304	31.74
939.732	32.42
940.16	31.93
940.588	32.54
941.015	32.83
941.443	32.47
941.871	32.48
942.298	32.61
942.726	33.11
943.154	32.77
943.581	32.85
944.009	32.35
944.436	32.56
944.864	32.86
945.291	32.86
945.718	32.86
946.146	32.9
946.573	32.52
947.001	32.72
947.428	32.73
947.855	33.11
948.282	32.71
948.71	32.83
949.137	32.89
949.564	32.73
949.991	32.88
950.418	32.72
950.845	32.84
951.272	32.57
951.699	32.5
952.126	33.15
952.553	32.95
952.98	33.15
953.407	32.82
953.834	32.61
954.261	32.78
954.688	32.72
955.114	33.06
955.541	32.96
955.968	32.9
956.395	32.65
956.821	32.91
957.248	32.72
957.674	33.21
958.101	32.97
958.528	32.56
958.954	32.6
959.381	32.62
959.807	33.19
960.234	32.92
960.66	32.49
961.086	32.87
961.513	33
961.939	32.81
962.365	32.79
962.792	32.93
963.218	32.64
963.644	32.54
964.07	32.57
964.496	32.78
964.923	32.89
965.349	32.88
965.775	32.86
966.201	32.7
966.627	32.68
967.053	33.03
967.479	32.94
967.905	32.54
968.331	32.74
968.756	32.81
969.182	32.72
969.608	32.77
970.034	32.57
970.46	32.7
970.885	32.46
971.311	32.74
971.737	32.38
972.162	32.8
972.588	32.71
973.014	32.7
973.439	32.67
973.865	32.63
974.29	32.46
974.716	32.76
975.141	32.79
975.567	32.53
975.992	32.84
976.417	33.01
976.843	32.84
977.268	33.09
977.693	33.46
978.119	33.53
978.544	33.54
978.969	33.67
979.394	33.79
979.819	33.73
980.244	33.83
980.669	33.9
981.095	33.76
981.52	33.55
981.945	33.81
982.369	33.76
982.794	33.73
983.219	33.6
983.644	33.42
984.069	33.1
984.494	32.8
984.919	32.74
985.343	32.45
985.768	32.62
986.193	32.7
986.618	32.3
987.042	32.59
987.467	32.76
987.891	32.87
988.316	32.68
988.741	32.77
989.165	33.25
989.59	32.94
990.014	32.92
990.438	32.95
990.863	33.22
991.287	33.11
991.712	33.01
992.136	33.02
992.56	32.79
992.984	33.06
993.409	33.15
993.833	32.9
994.257	32.98
994.681	32.84
995.105	32.77
995.529	33.12
995.953	32.78
996.377	32.86
996.801	32.92
997.225	33.01
997.649	32.39
998.073	32.8
998.497	32.86
998.921	32.88
999.345	32.63
999.769	32.66
1000.192	32.38
1000.616	32.68
1001.04	32.89
1001.464	32.72
1001.887	32.73
1002.311	32.75
1002.734	32.72
1003.158	32.43
1003.582	32.28
1004.005	32.31
1004.429	32.08
1004.852	32.21
1005.275	32.43
1005.699	32.19
1006.122	32.4
1006.546	32.47
1006.969	32.51
1007.392	32.24
1007.815	32.58
1008.239	32.56
1008.662	32.62
1009.085	32.63
1009.508	32.25
1009.931	32.38
1010.354	32.48
1010.778	32.36
1011.201	32.48
1011.624	32.31
1012.047	32.21
1012.469	32.42
1012.892	32.59
1013.315	32.32
1013.738	32.37
1014.161	32.67
1014.584	32.77
1015.007	32.84
1015.429	32.77
1015.852	32.76
1016.275	32.55
1016.697	32.7
1017.12	32.17
1017.543	32.75
1017.965	32.39
1018.388	32.94
1018.81	33.07
1019.233	32.97
1019.655	32.65
1020.078	32.96
1020.5	32.63
1020.922	32.79
1021.345	32.65
1021.767	32.56
1022.189	32.82
1022.612	32.8
1023.034	32.79
1023.456	32.91
1023.878	32.79
1024.301	32.44
1024.723	32.92
1025.145	32.72
1025.567	32.46
1025.989	32.67
1026.411	32.56
1026.833	32.97
1027.255	32.84
1027.677	32.62
1028.099	32.69
1028.52	32.5
1028.942	32.64
1029.364	32.81
1029.786	32.91
1030.208	32.78
1030.629	32.79
1031.051	32.91
1031.473	32.48
1031.894	33.35
1032.316	32.5
1032.738	32.95
1033.159	32.86
1033.581	32.9
1034.002	32.64
1034.424	32.56
1034.845	33.09
1035.267	32.6
1035.688	32.67
1036.109	32.65
1036.531	32.97
1036.952	32.36
1037.373	33.01
1037.794	32.52
1038.216	32.88
1038.637	32.44
1039.058	32.78
1039.479	32.96
1039.9	32.83
1040.321	33.06
1040.742	32.62
1041.163	32.8
1041.584	32.86
1042.005	32.76
1042.426	32.82
1042.847	33.15
1043.268	32.83
1043.689	32.76
1044.11	32.87
1044.53	32.99
1044.951	32.48
1045.372	32.66
1045.793	33.02
1046.213	32.49
1046.634	33.11
1047.055	32.72
1047.475	32.62
1047.896	32.37
1048.316	32.69
1048.737	32.89
1049.157	32.38
1049.578	32.91
1049.998	32.73
1050.419	32.41
1050.839	32.95
1051.259	32.66
1051.68	32.65
1052.1	32.55
1052.52	32.29
1052.94	32.77
1053.361	32.86
1053.781	32.75
1054.201	32.88
1054.621	33.25
1055.041	32.66
1055.461	33.27
1055.881	32.48
1056.301	32.99
1056.721	33.3
1057.141	33.11
1057.561	32.66
1057.981	32.8
1058.401	33.14
1058.82	33.01
1059.24	33.5
1059.66	32.73
1060.08	32.91
1060.499	33.54
1060.919	32.69
1061.339	32.64
1061.758	32.87
1062.178	33.13
1062.598	32.62
1063.017	32.53
1063.437	32.55
1063.856	32.31
1064.276	32.96
1064.695	32.5
1065.114	32.77
1065.534	33.29
1065.953	32.81
1066.372	32.23
1066.792	32.95
1067.211	32.33
1067.63	32.86
1068.049	32.8
1068.469	32.73
1068.888	32.96
1069.307	32.91
1069.726	33.07
1070.145	33.23
1070.564	32.56
1070.983	32.78
1071.402	33.59
1071.821	32.54
1072.24	32.34
1072.659	32.52
1073.078	32.59
1073.496	33.16
1073.915	32.8
1074.334	33.49
1074.753	33.33
1075.171	32.11
1075.59	32.21
1076.009	32.71
1076.427	33.26
1076.846	32.95
1077.265	32.69
1077.683	32.32
1078.102	32.79
1078.52	32.43
1078.939	33.28
1079.357	32.72
1079.776	32.85
1080.194	33.35
1080.612	33.12
1081.031	32.61
1081.449	33.47
1081.867	33.73
1082.285	33.48
1082.704	33.09
1083.122	32.85
1083.54	33.56
1083.958	32.41
1084.376	32.79
1084.794	32.83
1085.212	33.11
1085.63	32.29
1086.048	32.57
1086.466	33.14
1086.884	33.41
1087.302	32.13
1087.72	32.95
1088.138	33.35
1088.555	33.11
1088.973	33.27
1089.391	32.62
1089.809	33.72
1090.226	33.39
1090.644	33.98
1091.062	33.67
1091.479	32.67
1091.897	32.9
1092.314	32.96
1092.732	33.73
1093.15	33.44
1093.567	33.18
1093.984	32.66
1094.402	33.19
1094.819	33.49
1095.237	32.62
1095.654	33.27
1096.071	33.33
1096.488	32.57
1096.906	34.42
1097.323	33.37
1097.74	33.46
1098.157	33.34
1098.574	32.88
1098.991	31.93
1099.409	32.7
1099.826	33.46
1100.243	33.17
1100.66	34.01
1101.077	33.89
1101.494	32.91
1101.91	34.05
1102.327	33.27
1102.744	33.4
1103.161	32.73
1103.578	32.99
1103.994	33.73
1104.411	32.28
1104.828	33.46
1105.245	33
1105.661	33.78
1106.078	33.76
1106.494	33.18
1106.911	33.83
1107.328	33.51
1107.744	33.34
1108.161	34.82
1108.577	33.92
1108.993	32.43
1109.41	32.88
1109.826	34.24
1110.242	32.35
1110.659	33.01
1111.075	34.33
1111.491	34.41
1111.908	33.39
1112.324	33.23
1112.74	41.38
1113.156	32.38
1113.572	34.39
1113.988	32.46
1114.404	33.65
1114.82	34.16
1115.236	34.37
1115.652	33.07
1116.068	33.88
1116.484	32.45
1116.9	36.53
1117.316	31.93
1117.732	40.91
1118.147	45
1118.563	75
1118.979	-750
