Data from JCR0027_White2_Reflection_00002.txt Node
Date: Fri Jul 31 12:29:39 ACST 2020
User: Stacey Dix
Spectrometer: MAYP113282
Scans to average: 1
Trigger mode: 0
Integration Time (sec): 1.000000E-1
Electric dark correction enabled: true
Boxcar width: 0
XAxis mode: Wavelengths
Number of Pixels in Spectrum: 2068
>>>>>Begin Spectral Data<<<<<
198.791	-40.91
199.266	131.25
199.74	15
200.215	-75
200.69	41.88
201.164	23.36
201.639	40.09
202.114	30.2
202.588	49.64
203.063	30.48
203.537	20.71
204.012	50.96
204.486	38.39
204.961	26.26
205.435	34.97
205.909	28.03
206.384	34.62
206.858	17.1
207.332	38.14
207.807	38.54
208.281	32.94
208.755	21.49
209.229	26.72
209.703	47.51
210.177	51.42
210.651	32.94
211.126	35.39
211.6	14.76
212.074	22.5
212.548	47.69
213.021	18.91
213.495	48.55
213.969	22.79
214.443	25.92
214.917	23.36
215.391	21.65
215.864	21.74
216.338	8.9
216.812	22.17
217.286	23.84
217.759	31.24
218.233	25.3
218.706	25.88
219.18	29.29
219.654	13.3
220.127	21.21
220.6	8.74
221.074	10.92
221.547	12.66
222.021	24.14
222.494	20.83
222.967	18.88
223.441	19.47
223.914	19.45
224.387	12.25
224.86	17.8
225.334	19.13
225.807	15.7
226.28	11.46
226.753	9.75
227.226	9.31
227.699	13.44
228.172	10.48
228.645	13.37
229.118	10.44
229.591	16.39
230.064	12.62
230.537	12.34
231.01	10.39
231.482	10.44
231.955	12.61
232.428	9.5
232.901	10.48
233.373	9.18
233.846	11.48
234.319	7.89
234.791	9.27
235.264	9.92
235.736	8.46
236.209	8.71
236.681	9.97
237.154	9.39
237.626	9.65
238.099	10.66
238.571	9.65
239.044	10.01
239.516	10.02
239.988	8.7
240.46	9.69
240.933	7.63
241.405	9.4
241.877	7.71
242.349	9.48
242.821	9.29
243.293	9.63
243.765	9.15
244.237	8.25
244.71	9.06
245.181	8.52
245.653	9.58
246.125	9.51
246.597	9.48
247.069	8.19
247.541	7.76
248.013	8.78
248.485	8.04
248.956	8.44
249.428	7.63
249.9	8.05
250.371	7.76
250.843	8.06
251.315	7.54
251.786	7.8
252.258	7.69
252.729	7.28
253.201	7.7
253.672	6.51
254.144	6.85
254.615	7.13
255.086	7.45
255.558	7.69
256.029	7.69
256.5	7.6
256.972	7.03
257.443	7.24
257.914	6.77
258.385	7.18
258.856	6.56
259.327	7.77
259.799	6.85
260.27	6.96
260.741	6.29
261.212	6.9
261.683	7.64
262.154	6.9
262.624	6.64
263.095	7.07
263.566	6.34
264.037	7.47
264.508	6.16
264.979	7.33
265.449	6.4
265.92	6.59
266.391	6.17
266.861	6.51
267.332	6.72
267.803	7.12
268.273	6.63
268.744	6.64
269.214	7.13
269.685	6.5
270.155	6.34
270.626	7.55
271.096	6.59
271.566	7.24
272.037	7.33
272.507	6.99
272.977	6.96
273.448	7.13
273.918	6.79
274.388	6.57
274.858	6.11
275.328	7.59
275.798	6.84
276.268	6.79
276.738	6.23
277.208	6.8
277.678	6.88
278.148	7.35
278.618	6.33
279.088	8.27
279.558	6.7
280.028	5.61
280.498	6.01
280.968	6.26
281.437	7.46
281.907	5.06
282.377	6.07
282.847	6.55
283.316	6.36
283.786	6.44
284.255	6.97
284.725	6.41
285.194	5.78
285.664	5.8
286.133	6.6
286.603	5.82
287.072	6.24
287.542	6.03
288.011	6.33
288.48	5.96
288.95	6.19
289.419	6.5
289.888	5.77
290.357	6.25
290.827	6.24
291.296	6.36
291.765	5.76
292.234	6.98
292.703	5.83
293.172	6.97
293.641	6.2
294.11	6.69
294.579	6.5
295.048	6.81
295.517	6.09
295.986	6.77
296.455	7.3
296.923	7.51
297.392	6.73
297.861	6.93
298.33	6.72
298.798	6.65
299.267	7.33
299.736	7.11
300.204	7.12
300.673	6.87
301.141	7.04
301.61	7.09
302.079	6.84
302.547	6.39
303.015	6.37
303.484	6.3
303.952	7.52
304.421	7.85
304.889	7.02
305.357	7.33
305.825	6.73
306.294	7.98
306.762	7.42
307.23	7.35
307.698	7.38
308.166	7.05
308.634	6.79
309.103	7.01
309.571	7.22
310.039	7.01
310.507	7.37
310.975	7.2
311.442	7.01
311.91	6.74
312.378	7.28
312.846	7.05
313.314	7.23
313.782	6.84
314.249	7.2
314.717	7.71
315.185	7.36
315.652	7.05
316.12	7.56
316.588	6.77
317.055	8.22
317.523	7.43
317.99	7.88
318.458	7.27
318.925	7.26
319.393	7.66
319.86	7.63
320.328	7.74
320.795	7.35
321.262	8.89
321.73	6.85
322.197	7.3
322.664	7.88
323.131	9
323.598	8.23
324.066	7.83
324.533	8.56
325	10.53
325.467	9.61
325.934	10.1
326.401	9.86
326.868	10.65
327.335	10.2
327.802	10.16
328.269	10.9
328.735	13.06
329.202	12.77
329.669	12.76
330.136	13.16
330.603	13.27
331.069	14.82
331.536	14.18
332.003	14.13
332.469	13.43
332.936	14.85
333.402	15.06
333.869	15.26
334.336	14.25
334.802	15.98
335.268	15.77
335.735	15.61
336.201	15.73
336.668	16.6
337.134	15.87
337.6	15.39
338.067	15.32
338.533	16.83
338.999	15.14
339.465	16.71
339.931	16.11
340.398	16.38
340.864	16
341.33	15.52
341.796	16.81
342.262	16.73
342.728	16.04
343.194	17.67
343.66	16.01
344.126	15.79
344.592	15.74
345.057	15.75
345.523	15.47
345.989	15.97
346.455	16.7
346.921	17.41
347.386	17.92
347.852	16.76
348.318	16.24
348.783	16.72
349.249	15.68
349.714	16.79
350.18	16.37
350.645	16.72
351.111	15.44
351.576	15.87
352.042	15.83
352.507	16.42
352.973	16.59
353.438	16.69
353.903	15.9
354.369	15.4
354.834	18.17
355.299	18.09
355.764	15.48
356.229	16.66
356.695	17.73
357.16	16.46
357.625	16.62
358.09	16.92
358.555	16.26
359.02	16.6
359.485	16.99
359.95	15.69
360.415	15.97
360.879	16.9
361.344	16.87
361.809	18.13
362.274	15.72
362.739	17.22
363.203	17.02
363.668	16.4
364.133	17.42
364.597	17.19
365.062	17.25
365.527	17.91
365.991	17.72
366.456	16.45
366.92	16.98
367.385	18.25
367.849	16.01
368.314	16.81
368.778	15.62
369.242	18.38
369.707	17.92
370.171	16.83
370.635	17.87
371.1	17.65
371.564	18.28
372.028	19.64
372.492	17.73
372.956	16.93
373.42	17.78
373.884	15.75
374.348	18.92
374.812	18.44
375.276	17.01
375.74	17.83
376.204	17.45
376.668	17.31
377.132	18.88
377.596	17.44
378.06	18.18
378.524	17.43
378.987	17.3
379.451	17.84
379.915	18.53
380.378	16.99
380.842	18.72
381.306	18.87
381.769	19.44
382.233	18.42
382.696	18.64
383.16	17.67
383.623	18.73
384.087	17.84
384.55	16.9
385.014	17.22
385.477	17.95
385.94	19.19
386.404	19.23
386.867	18.91
387.33	17.94
387.793	19.74
388.256	18.62
388.72	18.88
389.183	18.58
389.646	18.43
390.109	19.5
390.572	18.89
391.035	19.22
391.498	18.55
391.961	18.43
392.424	18.01
392.887	19.67
393.35	18.93
393.812	18.68
394.275	18.81
394.738	20.11
395.201	18.47
395.664	19.56
396.126	20.57
396.589	20.34
397.052	18.75
397.514	20.16
397.977	19.7
398.439	19.84
398.902	19.33
399.364	19.77
399.827	19.23
400.289	20.37
400.752	18.96
401.214	19.75
401.676	19.7
402.139	19.01
402.601	19.24
403.063	18.4
403.525	19.89
403.988	20.6
404.45	18.81
404.912	19.83
405.374	18.39
405.836	20.33
406.298	20.42
406.76	19.53
407.222	19.96
407.684	20.81
408.146	20.41
408.608	19.23
409.07	20.35
409.532	18.97
409.994	19.35
410.456	20.31
410.917	19.92
411.379	19.42
411.841	19.63
412.303	20.02
412.764	20.33
413.226	19.6
413.687	19.52
414.149	19.49
414.611	21.12
415.072	19.69
415.534	21.36
415.995	19.45
416.457	19.46
416.918	20.5
417.379	20.04
417.841	19.89
418.302	20.14
418.763	19.2
419.225	20.85
419.686	20.81
420.147	19.25
420.608	20.34
421.069	20.92
421.53	21.66
421.991	20.89
422.453	20.13
422.914	20.9
423.375	19.42
423.836	19.44
424.297	20.37
424.757	21.99
425.218	21.11
425.679	20.43
426.14	21
426.601	22.25
427.062	19.06
427.522	20.85
427.983	19.6
428.444	23.68
428.904	19.75
429.365	21.44
429.826	20.05
430.286	21.39
430.747	21.17
431.207	20.83
431.668	21.26
432.128	20.72
432.589	22.6
433.049	22.28
433.509	19.79
433.97	20.69
434.43	20.86
434.89	20.85
435.351	18.81
435.811	20.51
436.271	21.4
436.731	22.06
437.191	21.25
437.651	21.17
438.112	23.37
438.572	21.92
439.032	21.17
439.492	19.68
439.952	22.33
440.412	20.84
440.871	21.55
441.331	21
441.791	21.99
442.251	21.74
442.711	19.79
443.171	22.4
443.63	21.92
444.09	22.44
444.55	23.02
445.009	21.65
445.469	20.63
445.929	21.45
446.388	20.3
446.848	21.5
447.307	22.45
447.767	20.41
448.226	21.87
448.686	22.57
449.145	20.73
449.604	21.35
450.064	20.7
450.523	23.37
450.982	22.14
451.442	22.93
451.901	23.16
452.36	21.69
452.819	22.61
453.278	21.66
453.737	23.72
454.197	21.5
454.656	21.65
455.115	21.18
455.574	22.69
456.033	21.99
456.492	21.32
456.95	22.8
457.409	22.96
457.868	21.72
458.327	21.86
458.786	21.13
459.245	22.47
459.703	22.91
460.162	21.59
460.621	22.37
461.079	22.83
461.538	21.34
461.997	21.66
462.455	23.65
462.914	23.07
463.372	21.13
463.831	20.2
464.289	21.98
464.748	23.14
465.206	22.84
465.664	20.67
466.123	21.29
466.581	21.8
467.039	25.46
467.497	22.05
467.956	22.9
468.414	23.57
468.872	20.61
469.33	20.32
469.788	22.49
470.246	23.14
470.704	19.32
471.162	21.94
471.62	23.65
472.078	20.95
472.536	23.38
472.994	24.1
473.452	21.84
473.91	21.53
474.368	21.49
474.826	21.46
475.283	22.96
475.741	22.77
476.199	20.93
476.656	23.59
477.114	24.52
477.572	19.87
478.029	22.75
478.487	23.55
478.944	22.22
479.402	23.9
479.859	20.96
480.317	21.04
480.774	23.92
481.232	22.78
481.689	22.25
482.146	22.32
482.604	22.37
483.061	21.84
483.518	23.7
483.975	23.82
484.433	22.69
484.89	23.47
485.347	21.85
485.804	22.5
486.261	22.69
486.718	23.6
487.175	23.96
487.632	23.01
488.089	21.48
488.546	25.4
489.003	24.81
489.46	23.33
489.917	21.49
490.373	22.42
490.83	21.7
491.287	23.85
491.744	17.66
492.2	23.4
492.657	22.79
493.114	23.77
493.57	22.13
494.027	22.88
494.484	23.95
494.94	22.42
495.397	23.16
495.853	22.25
496.31	23.56
496.766	25.33
497.222	22.67
497.679	23.3
498.135	23.33
498.591	21.75
499.048	22.13
499.504	23.27
499.96	23.42
500.416	22.6
500.872	21.94
501.329	23.21
501.785	24.07
502.241	21.96
502.697	23.25
503.153	22.68
503.609	24.52
504.065	20.1
504.521	22.22
504.977	24.97
505.432	22.69
505.888	23.23
506.344	23.57
506.8	22.45
507.256	22.24
507.711	23.21
508.167	24.53
508.623	23.2
509.078	22.51
509.534	23.95
509.99	22.48
510.445	23
510.901	22.24
511.356	23.37
511.812	22.97
512.267	22.61
512.722	22.48
513.178	23.11
513.633	24.01
514.089	23.11
514.544	23.01
514.999	22.2
515.454	23.01
515.91	23.92
516.365	24.15
516.82	23.35
517.275	23.97
517.73	23.51
518.185	22.82
518.64	22.51
519.095	22.31
519.55	23.68
520.005	21.85
520.46	23.15
520.915	23.07
521.37	22.99
521.825	22.53
522.28	23.77
522.734	22.73
523.189	22.57
523.644	23.05
524.099	23.89
524.553	22.01
525.008	24.66
525.462	22.43
525.917	23.48
526.372	23.13
526.826	24.84
527.281	24.72
527.735	22.56
528.19	22.15
528.644	23.25
529.098	23.41
529.553	23.44
530.007	24.31
530.461	22.89
530.916	23.14
531.37	23.91
531.824	25.2
532.278	23.57
532.732	23.1
533.186	22.46
533.641	22.45
534.095	24.79
534.549	24.2
535.003	24.89
535.457	24.64
535.911	26.35
536.365	26.05
536.818	21.21
537.272	25.96
537.726	24.13
538.18	23.16
538.634	23.48
539.087	23.72
539.541	24.48
539.995	23.67
540.449	22.07
540.902	24.72
541.356	23.73
541.809	24.14
542.263	23.1
542.716	24.82
543.17	23.77
543.623	24.94
544.077	25.09
544.53	23.62
544.984	23.46
545.437	23.43
545.89	23.43
546.344	21.73
546.797	24.14
547.25	24.29
547.703	24.21
548.157	23.86
548.61	24.81
549.063	24.32
549.516	24.63
549.969	25.45
550.422	22.67
550.875	22.82
551.328	25.15
551.781	25.03
552.234	24.56
552.687	23.42
553.14	25.55
553.592	22.58
554.045	23.24
554.498	22.92
554.951	24.01
555.404	24.2
555.856	25.35
556.309	26.2
556.762	24.56
557.214	23.97
557.667	24.96
558.119	25.87
558.572	23.73
559.024	24.43
559.477	24.19
559.929	25.67
560.382	24.25
560.834	24.13
561.286	24.25
561.739	24.82
562.191	25.48
562.643	24.25
563.095	23.67
563.548	24.39
564	23.43
564.452	24.18
564.904	23.9
565.356	23.62
565.808	24.48
566.26	24.17
566.712	26.44
567.164	24.4
567.616	23.52
568.068	26.07
568.52	24.87
568.972	24.75
569.424	24.94
569.876	24.61
570.327	25.61
570.779	25.18
571.231	24.76
571.682	24.92
572.134	24.35
572.586	25.12
573.037	24.18
573.489	24.25
573.941	24.93
574.392	25.71
574.844	24.47
575.295	26.55
575.746	24.83
576.198	25.43
576.649	25.36
577.101	25.07
577.552	27.1
578.003	24.69
578.454	25.82
578.906	23.52
579.357	24.41
579.808	25.21
580.259	23.4
580.71	26.86
581.161	25.76
581.612	25.15
582.064	24.42
582.515	25.5
582.965	25
583.416	25.39
583.867	24.48
584.318	25.92
584.769	26.38
585.22	25.24
585.671	25.2
586.122	25.9
586.572	25.02
587.023	24.79
587.474	25.96
587.924	25.6
588.375	24.91
588.826	24.48
589.276	25.41
589.727	25.18
590.177	24.84
590.628	26.89
591.078	25.32
591.529	25.6
591.979	24.53
592.429	24.77
592.88	24.64
593.33	24.79
593.78	24.69
594.231	24.18
594.681	25.17
595.131	25.62
595.581	24.62
596.031	26.51
596.481	25.65
596.932	26.52
597.382	26.1
597.832	24.97
598.282	24.85
598.732	25.72
599.182	24.88
599.632	25.54
600.081	26.2
600.531	26.72
600.981	26.2
601.431	24.85
601.881	26.37
602.33	25.35
602.78	25.23
603.23	25.32
603.679	25.3
604.129	25.39
604.579	25.89
605.028	25.73
605.478	25.3
605.927	26.3
606.377	26.1
606.826	26.4
607.276	25.43
607.725	24.67
608.175	25.45
608.624	25.35
609.073	25.14
609.522	25.65
609.972	25.18
610.421	26.85
610.87	24.87
611.319	24.86
611.768	26.41
612.218	26.44
612.667	25.66
613.116	25.59
613.565	25.67
614.014	25.91
614.463	26.22
614.912	26.17
615.361	26.43
615.81	25.52
616.258	26.61
616.707	26.45
617.156	27.14
617.605	26.38
618.054	26.59
618.502	26.66
618.951	25.9
619.4	24.9
619.848	26.87
620.297	25.85
620.745	26.1
621.194	24.77
621.642	26.21
622.091	26.35
622.539	26.18
622.988	25.47
623.436	25.88
623.885	26.08
624.333	26.26
624.781	26.54
625.23	26.08
625.678	26.54
626.126	25.97
626.574	25.51
627.022	25.02
627.471	26.53
627.919	26.61
628.367	27.74
628.815	26.13
629.263	26.74
629.711	25.72
630.159	26.63
630.607	25.98
631.055	26.42
631.503	25.65
631.95	26.07
632.398	25.94
632.846	26.24
633.294	25.78
633.742	26.37
634.189	26.67
634.637	26.84
635.085	26.16
635.532	25.88
635.98	26.39
636.427	26
636.875	26.5
637.323	27.1
637.77	25.79
638.217	26.9
638.665	26.98
639.112	26.57
639.56	26.43
640.007	26.82
640.454	26.8
640.902	27.66
641.349	25.93
641.796	25.94
642.243	26.94
642.69	26.37
643.138	25.86
643.585	27.7
644.032	26.36
644.479	26.35
644.926	26.99
645.373	26.25
645.82	26.72
646.267	26.74
646.714	26.21
647.161	26.33
647.607	26.93
648.054	27.05
648.501	26.95
648.948	27.68
649.395	27.35
649.841	27.24
650.288	26.11
650.735	27.69
651.181	26.49
651.628	27.17
652.075	26.45
652.521	27.03
652.968	26.41
653.414	26.72
653.861	26.5
654.307	27.12
654.753	26.71
655.2	26.54
655.646	26.26
656.092	26.08
656.539	26.61
656.985	26.07
657.431	26.9
657.877	26.69
658.324	26.88
658.77	27.03
659.216	26.3
659.662	26.79
660.108	26.86
660.554	26.53
661	26.34
661.446	27.34
661.892	27.36
662.338	26.16
662.784	27.2
663.23	26.16
663.675	26.48
664.121	26.89
664.567	27.73
665.013	26.92
665.458	27.51
665.904	27.53
666.35	26.63
666.795	26.12
667.241	28.1
667.687	26.76
668.132	27.38
668.578	27.08
669.023	27.28
669.469	26.76
669.914	27.94
670.359	27.25
670.805	26.88
671.25	26.59
671.695	26.53
672.141	28.03
672.586	26.47
673.031	27.42
673.476	26.97
673.922	27.53
674.367	27.45
674.812	27.34
675.257	27.2
675.702	26.86
676.147	27.03
676.592	28.03
677.037	26.4
677.482	28.12
677.927	26.93
678.372	27.06
678.817	28
679.261	27.14
679.706	27.28
680.151	26.92
680.596	26.26
681.04	27.98
681.485	26.71
681.93	28.38
682.374	27.6
682.819	27.49
683.264	27.4
683.708	27.86
684.153	27.78
684.597	27.82
685.042	28
685.486	28.11
685.93	27.3
686.375	27.84
686.819	27.51
687.263	27.84
687.708	27.98
688.152	27.92
688.596	27.69
689.04	27.81
689.485	27.65
689.929	27.87
690.373	27.72
690.817	27.63
691.261	27.33
691.705	27.65
692.149	28.3
692.593	27.56
693.037	27.95
693.481	27.69
693.925	28.39
694.369	28.03
694.812	27.51
695.256	28.03
695.7	27.66
696.144	27.4
696.587	27.06
697.031	27.08
697.475	27.69
697.918	27.62
698.362	27.59
698.806	27.46
699.249	27.66
699.693	27.75
700.136	28.02
700.58	27.65
701.023	27.94
701.466	27.17
701.91	28.03
702.353	28.14
702.796	28.81
703.24	28.16
703.683	27.65
704.126	27.9
704.569	27.61
705.013	27.81
705.456	28.33
705.899	27.63
706.342	28.21
706.785	27.73
707.228	28.58
707.671	27.9
708.114	27.98
708.557	27.22
709	27.91
709.443	27.68
709.886	27.4
710.328	28.33
710.771	28.45
711.214	28.15
711.657	28.53
712.099	28.38
712.542	28.21
712.985	27.54
713.427	28.73
713.87	27.63
714.313	28.63
714.755	28.04
715.198	27.71
715.64	27.94
716.083	28.24
716.525	27.23
716.967	27.36
717.41	28.34
717.852	27.08
718.295	27.84
718.737	28.38
719.179	28.48
719.621	28.12
720.063	28.67
720.506	27.41
720.948	28.16
721.39	28.57
721.832	27.83
722.274	28.44
722.716	28.36
723.158	28.04
723.6	28.72
724.042	29.17
724.484	27.58
724.926	28.74
725.368	27.91
725.81	28.63
726.251	28.28
726.693	28.43
727.135	28.29
727.577	28.2
728.018	28.38
728.46	28.04
728.902	29.13
729.343	27.87
729.785	28.78
730.226	28.3
730.668	28.48
731.109	29.36
731.551	29.06
731.992	29.18
732.434	28.1
732.875	29.46
733.316	29.08
733.758	28.45
734.199	28.68
734.64	28.35
735.081	28.37
735.523	28.9
735.964	29.48
736.405	29.27
736.846	29.23
737.287	28.48
737.728	28.51
738.169	29.21
738.61	28.74
739.051	28.9
739.492	29.45
739.933	28.83
740.374	29.3
740.815	28.97
741.256	29.48
741.696	29.32
742.137	27.8
742.578	29.07
743.019	28.83
743.459	29.15
743.9	29.7
744.341	29.18
744.781	28.9
745.222	29.07
745.662	28.51
746.103	29.22
746.543	28.92
746.984	29.58
747.424	28.7
747.865	28.65
748.305	29.27
748.745	28.69
749.186	29.73
749.626	29.47
750.066	28.38
750.506	29.27
750.947	28.19
751.387	29.94
751.827	29.85
752.267	28.92
752.707	29.35
753.147	29.76
753.587	28.64
754.027	29.2
754.467	29.66
754.907	29.68
755.347	29.55
755.787	28.3
756.227	29.63
756.667	29.36
757.107	30.14
757.546	29.15
757.986	29.12
758.426	28.96
758.865	29.15
759.305	29.43
759.745	29.15
760.184	29.54
760.624	29.72
761.063	29.81
761.503	29.58
761.943	29.08
762.382	29.59
762.821	30.36
763.261	29.4
763.7	28.85
764.14	29.32
764.579	29.06
765.018	29.55
765.457	29.97
765.897	29.4
766.336	29.74
766.775	29.51
767.214	29.28
767.653	30.26
768.092	29.66
768.531	29.57
768.97	30.39
769.409	29.24
769.848	29.57
770.287	29.44
770.726	29.67
771.165	29.79
771.604	30.21
772.043	29.69
772.482	29.81
772.92	30.33
773.359	29.8
773.798	30.31
774.237	29.63
774.675	30.17
775.114	29.13
775.553	30.41
775.991	29.61
776.43	29.46
776.868	29.54
777.307	29.44
777.745	29.01
778.184	30.18
778.622	30.78
779.06	29.53
779.499	29.95
779.937	29.54
780.375	29.64
780.814	30.37
781.252	29.33
781.69	29.24
782.128	29.79
782.566	30.25
783.004	29.95
783.443	29.87
783.881	29.74
784.319	29.83
784.757	29.89
785.195	29.75
785.633	30.35
786.071	29.69
786.508	30.29
786.946	30.44
787.384	29.8
787.822	30.28
788.26	30.58
788.697	30.24
789.135	29.73
789.573	30.25
790.011	30.81
790.448	30.16
790.886	29.67
791.323	30.41
791.761	30.52
792.198	30.32
792.636	30
793.073	29.91
793.511	30.73
793.948	30.57
794.386	30.26
794.823	29.88
795.26	30.49
795.698	30.52
796.135	30.28
796.572	30.73
797.009	30.14
797.446	30.82
797.884	30.56
798.321	30.24
798.758	30.39
799.195	30.5
799.632	29.97
800.069	30.58
800.506	31.02
800.943	29.9
801.38	30.7
801.817	30.74
802.254	30.36
802.69	30.44
803.127	30.77
803.564	30.39
804.001	30.71
804.438	30.94
804.874	30.78
805.311	30.65
805.748	31.11
806.184	30.88
806.621	30.35
807.057	30.39
807.494	31.18
807.93	30.5
808.367	30.7
808.803	30.94
809.24	30.5
809.676	30.6
810.112	30.2
810.549	31.18
810.985	30.32
811.421	30.33
811.857	31.36
812.294	30.02
812.73	30.77
813.166	31.3
813.602	30.52
814.038	30.72
814.474	30.85
814.91	30.48
815.346	30.87
815.782	30.64
816.218	31.64
816.654	30.87
817.09	31.17
817.526	31.9
817.962	30.15
818.398	30.88
818.833	31.19
819.269	31.36
819.705	31.18
820.141	31.59
820.576	30.95
821.012	30.88
821.447	30.59
821.883	31.6
822.319	31
822.754	31.05
823.19	31.02
823.625	31.28
824.061	30.84
824.496	30.88
824.931	31.18
825.367	30.97
825.802	30.55
826.237	31.84
826.673	31.66
827.108	31.16
827.543	31.21
827.978	31
828.413	30.79
828.849	31.71
829.284	31.48
829.719	31.43
830.154	31.44
830.589	32.04
831.024	31.52
831.459	31.14
831.894	30.71
832.329	31.79
832.763	31.74
833.198	31.19
833.633	31.51
834.068	31.27
834.503	31.37
834.937	31.61
835.372	31.37
835.807	31.59
836.241	31.58
836.676	31.61
837.111	31.07
837.545	31.4
837.98	31.8
838.414	31.42
838.849	31.32
839.283	32.06
839.717	31.23
840.152	31.7
840.586	32.01
841.021	31.98
841.455	31.57
841.889	31.46
842.323	31.97
842.758	32.01
843.192	31.35
843.626	31.23
844.06	31.85
844.494	31.45
844.928	32.08
845.362	31.43
845.796	31.52
846.23	31.74
846.664	31.74
847.098	31.61
847.532	31.8
847.966	31.22
848.4	32.07
848.834	31.76
849.267	31.85
849.701	31.75
850.135	32.42
850.569	31.79
851.002	32.59
851.436	31.9
851.87	31.8
852.303	31.63
852.737	31.94
853.17	31.76
853.604	32.23
854.037	31.91
854.471	32.04
854.904	32.7
855.337	31.65
855.771	32.23
856.204	32.21
856.637	32.11
857.071	31.85
857.504	32.32
857.937	31.86
858.37	31.85
858.804	32.31
859.237	31.35
859.67	32.03
860.103	31.86
860.536	32.2
860.969	32.21
861.402	31.79
861.835	32.32
862.268	32.04
862.701	32.62
863.134	32.66
863.566	32.32
863.999	32.82
864.432	31.91
864.865	32.79
865.298	32.25
865.73	32.07
866.163	32.1
866.596	32.21
867.028	32.17
867.461	32.58
867.893	32.9
868.326	32.52
868.758	32.33
869.191	32.44
869.623	32.52
870.056	32.29
870.488	32.34
870.92	32.67
871.353	32.32
871.785	32.61
872.217	32.17
872.65	32.34
873.082	32.39
873.514	32.47
873.946	32.38
874.378	32.49
874.81	32.53
875.243	32.94
875.675	32.06
876.107	33.12
876.539	33.18
876.971	32.4
877.403	32.43
877.834	32.52
878.266	32.41
878.698	32.63
879.13	32.05
879.562	32.5
879.994	33.06
880.425	33.22
880.857	32.82
881.289	32.18
881.72	32.29
882.152	32.97
882.584	32.49
883.015	32.69
883.447	32.67
883.878	32.92
884.31	32.3
884.741	32.82
885.173	32.93
885.604	32.94
886.035	32.68
886.467	33.06
886.898	32.69
887.329	32.65
887.76	32.59
888.192	33.76
888.623	32.34
889.054	32.72
889.485	33.05
889.916	32.69
890.347	32.98
890.778	32.85
891.209	33.04
891.64	33.12
892.071	32.95
892.502	32.98
892.933	33.52
893.364	32.79
893.795	33.11
894.226	32.96
894.657	32.81
895.087	33.49
895.518	33.96
895.949	33.62
896.38	33.08
896.81	33.17
897.241	33.25
897.671	33.68
898.102	33.2
898.533	32.83
898.963	33.79
899.394	33.09
899.824	33.56
900.254	33.29
900.685	33.74
901.115	33.3
901.546	33.07
901.976	33.33
902.406	33.11
902.836	33.36
903.267	33.32
903.697	33.23
904.127	33.06
904.557	33.23
904.987	33.26
905.417	33.61
905.847	33.43
906.277	33.33
906.707	33.65
907.137	33.62
907.567	33.62
907.997	33.27
908.427	33.63
908.857	33.41
909.287	33.5
909.717	33.84
910.146	33.22
910.576	33.52
911.006	33.47
911.436	33.46
911.865	33.61
912.295	33.29
912.724	33.93
913.154	33.63
913.584	33.73
914.013	33.82
914.443	33.99
914.872	33.72
915.302	33.76
915.731	33.72
916.16	33.64
916.59	34.14
917.019	33.54
917.448	33.96
917.878	33.56
918.307	33.75
918.736	34.03
919.165	33.48
919.594	33.77
920.023	33.8
920.452	34.06
920.882	33.95
921.311	33.18
921.74	33.38
922.169	33.84
922.597	33.73
923.026	33.86
923.455	34.11
923.884	33.66
924.313	33.67
924.742	33.68
925.171	34.15
925.599	33.89
926.028	34.39
926.457	34.23
926.885	33.86
927.314	33.79
927.743	33.88
928.171	33.83
928.6	33.72
929.028	34.04
929.457	34.15
929.885	33.69
930.314	34.34
930.742	34.03
931.17	34.13
931.599	34.04
932.027	34.34
932.455	34.14
932.884	34.23
933.312	33.93
933.74	33.84
934.168	34.09
934.596	34.58
935.025	34.38
935.453	34.17
935.881	34.28
936.309	34.19
936.737	33.56
937.165	35.35
937.593	33.97
938.021	34.05
938.449	34.44
938.876	33.06
939.304	33.68
939.732	33.84
940.16	33.82
940.588	34.24
941.015	34.41
941.443	33.79
941.871	34.83
942.298	34.62
942.726	33.4
943.154	34.32
943.581	34.21
944.009	33.95
944.436	34.06
944.864	34.15
945.291	34.74
945.718	34.61
946.146	34.04
946.573	34.49
947.001	34.11
947.428	34.4
947.855	34.92
948.282	34.13
948.71	33.83
949.137	34.44
949.564	34.26
949.991	34.21
950.418	34.53
950.845	34.76
951.272	33.93
951.699	34.63
952.126	34.15
952.553	34.93
952.98	34.13
953.407	34.29
953.834	35.45
954.261	34.31
954.688	34.81
955.114	34.6
955.541	34.12
955.968	34.48
956.395	35.01
956.821	34.93
957.248	35.12
957.674	34.18
958.101	34.62
958.528	34.29
958.954	34.5
959.381	34.75
959.807	34.49
960.234	34.55
960.66	34.39
961.086	34.39
961.513	34.65
961.939	34.58
962.365	35.1
962.792	34.67
963.218	34.71
963.644	34.88
964.07	34.48
964.496	34.64
964.923	34.85
965.349	34.74
965.775	35.05
966.201	34.38
966.627	34.46
967.053	34.76
967.479	34.94
967.905	34.86
968.331	35.12
968.756	35.37
969.182	35.11
969.608	34.79
970.034	35.17
970.46	35.28
970.885	35.58
971.311	35.05
971.737	35.02
972.162	35.35
972.588	35.55
973.014	35.35
973.439	35.11
973.865	35.5
974.29	35.06
974.716	34.99
975.141	35.05
975.567	35.03
975.992	35.19
976.417	34.91
976.843	35.3
977.268	35.22
977.693	35.44
978.119	35
978.544	35.35
978.969	35.01
979.394	35.48
979.819	35.04
980.244	35.37
980.669	35.1
981.095	35.02
981.52	35.74
981.945	35.25
982.369	35.28
982.794	35.58
983.219	35.5
983.644	35.49
984.069	35.24
984.494	35.59
984.919	35.22
985.343	35.23
985.768	35.37
986.193	35.53
986.618	35.45
987.042	35.41
987.467	35.4
987.891	35.44
988.316	35.56
988.741	35.5
989.165	35.67
989.59	35.62
990.014	35.54
990.438	35.34
990.863	35.36
991.287	35.96
991.712	35.21
992.136	35.6
992.56	35.46
992.984	35.72
993.409	35.33
993.833	35.65
994.257	35.58
994.681	35.77
995.105	35.57
995.529	36.31
995.953	35.55
996.377	36.14
996.801	35.47
997.225	35.69
997.649	35.72
998.073	35.55
998.497	35.84
998.921	35.57
999.345	36.15
999.769	35.72
1000.192	35.94
1000.616	35.74
1001.04	36.15
1001.464	35.91
1001.887	35.85
1002.311	35.97
1002.734	35.74
1003.158	36.12
1003.582	36.27
1004.005	36.14
1004.429	36.01
1004.852	36.04
1005.275	35.75
1005.699	35.9
1006.122	35.65
1006.546	36.01
1006.969	36.4
1007.392	36.08
1007.815	36.09
1008.239	35.61
1008.662	36.09
1009.085	36.21
1009.508	35.97
1009.931	36.48
1010.354	35.73
1010.778	36.2
1011.201	36.14
1011.624	36.26
1012.047	36.34
1012.469	36.01
1012.892	36.47
1013.315	35.93
1013.738	35.97
1014.161	36.1
1014.584	36.58
1015.007	36.42
1015.429	36.55
1015.852	36.32
1016.275	36.27
1016.697	36.41
1017.12	36
1017.543	35.92
1017.965	36.45
1018.388	36.45
1018.81	36.46
1019.233	36.19
1019.655	36.76
1020.078	36.32
1020.5	36.49
1020.922	36.24
1021.345	36.67
1021.767	36.54
1022.189	36.12
1022.612	36.7
1023.034	36.28
1023.456	36.55
1023.878	36.25
1024.301	36.84
1024.723	36.59
1025.145	36.41
1025.567	36.85
1025.989	36.34
1026.411	36.85
1026.833	35.85
1027.255	36.78
1027.677	36.67
1028.099	36.55
1028.52	36.25
1028.942	36.51
1029.364	36.91
1029.786	36.87
1030.208	36.73
1030.629	36.86
1031.051	37.19
1031.473	37.02
1031.894	36.61
1032.316	37.31
1032.738	37.05
1033.159	37.36
1033.581	37.01
1034.002	36.25
1034.424	36.69
1034.845	36.7
1035.267	36.99
1035.688	36.62
1036.109	36.65
1036.531	37.05
1036.952	36.35
1037.373	36.88
1037.794	37.02
1038.216	36.9
1038.637	36.71
1039.058	37.59
1039.479	36.61
1039.9	37.03
1040.321	36.84
1040.742	37
1041.163	36.91
1041.584	37.03
1042.005	37.12
1042.426	37.15
1042.847	36.63
1043.268	36.84
1043.689	37.11
1044.11	36.12
1044.53	36.68
1044.951	37.3
1045.372	37.33
1045.793	36.65
1046.213	37.14
1046.634	37.2
1047.055	37.12
1047.475	37.16
1047.896	37.1
1048.316	36.91
1048.737	38.47
1049.157	37.76
1049.578	36.58
1049.998	36.8
1050.419	37.12
1050.839	36.96
1051.259	37.22
1051.68	37.21
1052.1	36.92
1052.52	37.14
1052.94	36.88
1053.361	36.92
1053.781	36.97
1054.201	38.02
1054.621	36.96
1055.041	37.18
1055.461	37.6
1055.881	37.95
1056.301	37.12
1056.721	37.94
1057.141	38.18
1057.561	37.24
1057.981	37.82
1058.401	38.25
1058.82	36.88
1059.24	38.45
1059.66	37.82
1060.08	37.9
1060.499	37.7
1060.919	37.79
1061.339	37.13
1061.758	37.88
1062.178	37.56
1062.598	38.02
1063.017	37.01
1063.437	37.27
1063.856	38.11
1064.276	37.78
1064.695	37.89
1065.114	37.7
1065.534	38.04
1065.953	37.25
1066.372	38.09
1066.792	38.03
1067.211	37.46
1067.63	38.05
1068.049	38.68
1068.469	37.52
1068.888	38.1
1069.307	38.54
1069.726	37.17
1070.145	37.48
1070.564	37.15
1070.983	37.98
1071.402	38.11
1071.821	37.13
1072.24	37.73
1072.659	37.62
1073.078	38.67
1073.496	38.25
1073.915	37.42
1074.334	37.27
1074.753	37.82
1075.171	37.73
1075.59	37.06
1076.009	38.01
1076.427	37.58
1076.846	38.58
1077.265	38.69
1077.683	38.12
1078.102	37.31
1078.52	37.86
1078.939	37.98
1079.357	37.42
1079.776	36.89
1080.194	38.14
1080.612	36.9
1081.031	38.34
1081.449	37.12
1081.867	40.17
1082.285	38.54
1082.704	37.74
1083.122	37.04
1083.54	39.7
1083.958	37.21
1084.376	37.92
1084.794	37.59
1085.212	38.25
1085.63	37.87
1086.048	38.87
1086.466	38.6
1086.884	38.57
1087.302	38.74
1087.72	37.85
1088.138	38.73
1088.555	37.32
1088.973	36.95
1089.391	37.75
1089.809	37.17
1090.226	37.16
1090.644	37.66
1091.062	38.53
1091.479	38.37
1091.897	38.61
1092.314	38.75
1092.732	37.56
1093.15	38.3
1093.567	37.5
1093.984	38.95
1094.402	38.71
1094.819	38.11
1095.237	36.83
1095.654	36.46
1096.071	37.14
1096.488	36.32
1096.906	39.05
1097.323	39.31
1097.74	37.27
1098.157	37.84
1098.574	38.43
1098.991	37.1
1099.409	38.86
1099.826	37.29
1100.243	38.28
1100.66	38.97
1101.077	38.86
1101.494	38.47
1101.91	37.78
1102.327	37.01
1102.744	39.67
1103.161	38.91
1103.578	37.24
1103.994	37.21
1104.411	38.8
1104.828	38.02
1105.245	37.3
1105.661	38.94
1106.078	38.82
1106.494	39.15
1106.911	38.14
1107.328	37.59
1107.744	35.9
1108.161	37.76
1108.577	38.18
1108.993	38.27
1109.41	36.9
1109.826	39.44
1110.242	37.7
1110.659	38.15
1111.075	37.69
1111.491	37.61
1111.908	40.97
1112.324	35.34
1112.74	48.79
1113.156	37.07
1113.572	36.39
1113.988	37.46
1114.404	37.58
1114.82	37.58
1115.236	35.91
1115.652	40.46
1116.068	37.52
1116.484	37.64
1116.9	36.48
1117.316	42.04
1117.732	75
1118.147	32.93
1118.563	64.29
1118.979	243.75
