Data from JCR0023_YellowVentral_Reflection_00002.txt Node
Date: Fri Jul 31 11:46:05 ACST 2020
User: Stacey Dix
Spectrometer: MAYP113282
Scans to average: 1
Trigger mode: 0
Integration Time (sec): 1.000000E-1
Electric dark correction enabled: true
Boxcar width: 0
XAxis mode: Wavelengths
Number of Pixels in Spectrum: 2068
>>>>>Begin Spectral Data<<<<<
198.791	-127.27
199.266	87.5
199.74	200
200.215	-100
200.69	23.35
201.164	45.08
201.639	24.14
202.114	32.08
202.588	22.78
203.063	39.84
203.537	34.31
204.012	20.57
204.486	35.83
204.961	9.73
205.435	28.72
205.909	20
206.384	4.35
206.858	19.12
207.332	35.43
207.807	11.05
208.281	33.78
208.755	12.92
209.229	17.19
209.703	17.44
210.177	38.53
210.651	20.61
211.126	22.54
211.6	7.48
212.074	12.11
212.548	27.17
213.021	17.89
213.495	41.32
213.969	11.88
214.443	27.19
214.917	19.19
215.391	13.16
215.864	20.38
216.338	18.68
216.812	24.49
217.286	30.18
217.759	24.96
218.233	9.04
218.706	11.87
219.18	8.94
219.654	13.74
220.127	9.77
220.6	8.24
221.074	17.45
221.547	18.05
222.021	20.08
222.494	8.54
222.967	19.45
223.441	11.06
223.914	16.19
224.387	10.73
224.86	14.27
225.334	16.81
225.807	12.12
226.28	13.57
226.753	11.52
227.226	10.87
227.699	13.59
228.172	11.51
228.645	13.34
229.118	9.51
229.591	12.55
230.064	10.64
230.537	11.48
231.01	12.25
231.482	10.76
231.955	8.74
232.428	11.7
232.901	10.56
233.373	10.66
233.846	11.05
234.319	9.46
234.791	9.49
235.264	10.72
235.736	8.59
236.209	10.26
236.681	10.09
237.154	11.84
237.626	11.23
238.099	10.77
238.571	10.38
239.044	9.62
239.516	12.03
239.988	9.4
240.46	10.04
240.933	9.85
241.405	10.83
241.877	9.58
242.349	10.44
242.821	10.9
243.293	10.74
243.765	9.51
244.237	9.73
244.71	11.19
245.181	8.51
245.653	10.67
246.125	9.59
246.597	9.9
247.069	8.28
247.541	8.83
248.013	9.11
248.485	9.37
248.956	10.26
249.428	8.65
249.9	9.24
250.371	9.49
250.843	9.42
251.315	9.3
251.786	8.32
252.258	8.33
252.729	9.98
253.201	8.72
253.672	8.52
254.144	8.66
254.615	8.46
255.086	8.71
255.558	9.44
256.029	9.08
256.5	9.29
256.972	8.32
257.443	8.67
257.914	8.37
258.385	7.68
258.856	8.14
259.327	8.57
259.799	8.39
260.27	8.7
260.741	7.88
261.212	8.36
261.683	8.77
262.154	8.08
262.624	8.36
263.095	8.59
263.566	8.45
264.037	8.7
264.508	8.04
264.979	8.32
265.449	7.71
265.92	8.16
266.391	8.05
266.861	8.13
267.332	7.88
267.803	9.03
268.273	9.39
268.744	7.97
269.214	8.56
269.685	8.73
270.155	8.35
270.626	8.81
271.096	7.85
271.566	7.44
272.037	8.25
272.507	8.11
272.977	8.75
273.448	8.4
273.918	7.58
274.388	8.14
274.858	5.9
275.328	7.52
275.798	8.2
276.268	8.57
276.738	7.94
277.208	7.96
277.678	7.39
278.148	8.3
278.618	7.29
279.088	8.2
279.558	7.58
280.028	8.09
280.498	7.33
280.968	8.95
281.437	7.21
281.907	8.55
282.377	7.62
282.847	7.96
283.316	7.39
283.786	8.25
284.255	8.14
284.725	7.92
285.194	8.17
285.664	8.2
286.133	7.44
286.603	7.21
287.072	8.03
287.542	7.74
288.011	7.33
288.48	6.97
288.95	7.47
289.419	7.88
289.888	7.28
290.357	8.46
290.827	7.77
291.296	7.62
291.765	7.02
292.234	7.64
292.703	6.93
293.172	8.56
293.641	7.83
294.11	7.83
294.579	7.52
295.048	7.6
295.517	7.81
295.986	8.06
296.455	7.74
296.923	8.08
297.392	7.72
297.861	7.62
298.33	7.89
298.798	7.7
299.267	8.63
299.736	7.39
300.204	8.17
300.673	7.97
301.141	7.53
301.61	7.11
302.079	7.54
302.547	7.82
303.015	7.31
303.484	7.48
303.952	7.95
304.421	7.15
304.889	7.99
305.357	7.67
305.825	8.27
306.294	8.56
306.762	7.59
307.23	8.63
307.698	8.78
308.166	7.76
308.634	8.25
309.103	8.25
309.571	8.79
310.039	8.69
310.507	8.27
310.975	7.8
311.442	7.55
311.91	7.7
312.378	8.82
312.846	7.8
313.314	8.64
313.782	8.56
314.249	8.97
314.717	8.83
315.185	8.67
315.652	8.18
316.12	8.46
316.588	7.9
317.055	8.89
317.523	8.4
317.99	8.79
318.458	8.13
318.925	8.44
319.393	8.69
319.86	8.69
320.328	8.48
320.795	8.46
321.262	9.59
321.73	8.42
322.197	9.06
322.664	9.24
323.131	9.31
323.598	10.1
324.066	8.88
324.533	9.1
325	10.75
325.467	9.42
325.934	10.06
326.401	9.95
326.868	10.23
327.335	10.8
327.802	10.15
328.269	10.32
328.735	11.54
329.202	11.1
329.669	10.86
330.136	11.02
330.603	10.68
331.069	11.55
331.536	12.18
332.003	11.33
332.469	10.88
332.936	10.46
333.402	11.79
333.869	11.42
334.336	11.79
334.802	11.12
335.268	11
335.735	10.36
336.201	11.11
336.668	10.79
337.134	11.63
337.6	11.74
338.067	11.01
338.533	11.27
338.999	11.23
339.465	11.07
339.931	11.4
340.398	11.89
340.864	10.94
341.33	10.48
341.796	11.74
342.262	11.22
342.728	10.52
343.194	11.51
343.66	10.9
344.126	11.63
344.592	11.33
345.057	11.37
345.523	11.06
345.989	12.26
346.455	11.87
346.921	11
347.386	11.88
347.852	11.65
348.318	11.24
348.783	11.98
349.249	10.62
349.714	12.04
350.18	11.01
350.645	12.45
351.111	10.61
351.576	10.37
352.042	11.58
352.507	11.66
352.973	11.16
353.438	10.88
353.903	12.65
354.369	10.43
354.834	11.34
355.299	12.41
355.764	11.02
356.229	10.78
356.695	11.86
357.16	11.34
357.625	11.36
358.09	10.51
358.555	10.66
359.02	11.23
359.485	11.36
359.95	11.12
360.415	10.7
360.879	11.02
361.344	11.81
361.809	11.26
362.274	10.87
362.739	12.07
363.203	11.3
363.668	10.52
364.133	10.95
364.597	11.54
365.062	10.4
365.527	11.57
365.991	11.38
366.456	10.22
366.92	11.94
367.385	11.11
367.849	11.15
368.314	10.97
368.778	11.05
369.242	11.69
369.707	11.58
370.171	11.3
370.635	11.51
371.1	10.38
371.564	12.26
372.028	11.12
372.492	11.1
372.956	9.9
373.42	12.46
373.884	10.92
374.348	12.22
374.812	12.09
375.276	11.41
375.74	11.77
376.204	11.92
376.668	10.93
377.132	10.68
377.596	11.11
378.06	11.45
378.524	10.24
378.987	11.46
379.451	12.04
379.915	11.29
380.378	11.28
380.842	11.14
381.306	12.61
381.769	10.93
382.233	11.69
382.696	11.83
383.16	11.91
383.623	11.15
384.087	11.51
384.55	10.49
385.014	11.13
385.477	11.84
385.94	12.94
386.404	11.78
386.867	12.08
387.33	10.24
387.793	11.58
388.256	11.36
388.72	11.5
389.183	10.66
389.646	11.66
390.109	11.3
390.572	12.89
391.035	11.37
391.498	11.03
391.961	11.36
392.424	11.21
392.887	11.59
393.35	9.35
393.812	10.6
394.275	10.78
394.738	10.76
395.201	11.76
395.664	10.79
396.126	11.77
396.589	9.96
397.052	11.35
397.514	11.17
397.977	11.27
398.439	11.18
398.902	10.99
399.364	11.28
399.827	11.39
400.289	11.7
400.752	11.41
401.214	10.69
401.676	11.74
402.139	10.75
402.601	11.44
403.063	10.82
403.525	11.66
403.988	11.75
404.45	10.71
404.912	12.09
405.374	10.17
405.836	10.61
406.298	11.15
406.76	10.25
407.222	10.95
407.684	11.27
408.146	11.41
408.608	11.04
409.07	11.05
409.532	10.34
409.994	9.91
410.456	11.43
410.917	10.91
411.379	12.33
411.841	11.09
412.303	10.09
412.764	11.74
413.226	11.13
413.687	11.04
414.149	11
414.611	11.47
415.072	11.27
415.534	11.01
415.995	10.98
416.457	9.91
416.918	11.44
417.379	10.44
417.841	10.75
418.302	10.5
418.763	10.97
419.225	11.49
419.686	11.69
420.147	9.81
420.608	12.21
421.069	11.59
421.53	11.07
421.991	10.87
422.453	10.56
422.914	12.19
423.375	10.56
423.836	9.99
424.297	11.39
424.757	11
425.218	11.41
425.679	11.26
426.14	10.53
426.601	10.07
427.062	11.8
427.522	10.07
427.983	11.53
428.444	11.53
428.904	9.91
429.365	11.48
429.826	10.56
430.286	11.57
430.747	10.59
431.207	10.39
431.668	14.13
432.128	12.31
432.589	10.35
433.049	11.22
433.509	11.31
433.97	10.83
434.43	11.72
434.89	9.79
435.351	8.37
435.811	12.25
436.271	10.52
436.731	12.19
437.191	12.58
437.651	10.31
438.112	11.16
438.572	11.23
439.032	9.79
439.492	12.15
439.952	12.52
440.412	11.64
440.871	10.66
441.331	11.65
441.791	12.67
442.251	10.69
442.711	10.41
443.171	11.18
443.63	10
444.09	11.26
444.55	12.14
445.009	10.13
445.469	11
445.929	11.59
446.388	9.81
446.848	12.05
447.307	12.21
447.767	11.77
448.226	11.08
448.686	10.5
449.145	9.74
449.604	10.98
450.064	12.07
450.523	11.58
450.982	10.71
451.442	10.69
451.901	12.89
452.36	12.19
452.819	11.81
453.278	12.15
453.737	12.82
454.197	10.53
454.656	11.69
455.115	12.05
455.574	12.42
456.033	10.91
456.492	12.33
456.95	11.06
457.409	12.25
457.868	12.45
458.327	13.09
458.786	11.81
459.245	11.95
459.703	11.43
460.162	12.07
460.621	10.61
461.079	10.88
461.538	13.03
461.997	12.53
462.455	12.27
462.914	11.96
463.372	11.74
463.831	10.07
464.289	13.47
464.748	11.34
465.206	11.91
465.664	10.83
466.123	11.37
466.581	12.4
467.039	12.97
467.497	12.5
467.956	13.28
468.414	12.58
468.872	11.42
469.33	11.93
469.788	13.3
470.246	13
470.704	12.3
471.162	12.92
471.62	13.31
472.078	13.43
472.536	10.72
472.994	13.7
473.452	12.62
473.91	13.08
474.368	12.14
474.826	13.2
475.283	13.25
475.741	12.74
476.199	12.12
476.656	15.54
477.114	15.23
477.572	12.31
478.029	14.5
478.487	12
478.944	11.89
479.402	15.72
479.859	13.84
480.317	12.41
480.774	14.62
481.232	15.09
481.689	12.74
482.146	13.41
482.604	13.51
483.061	13.49
483.518	13.77
483.975	14.46
484.433	13.26
484.89	13.96
485.347	13.94
485.804	15.94
486.261	14
486.718	14.62
487.175	14.12
487.632	15.22
488.089	15.19
488.546	17.27
489.003	15.91
489.46	16.14
489.917	15.78
490.373	14.42
490.83	14.79
491.287	16.46
491.744	14.25
492.2	14.34
492.657	15.83
493.114	14.8
493.57	13.11
494.027	16.03
494.484	16.75
494.94	15.57
495.397	15.39
495.853	15.37
496.31	16.13
496.766	16.53
497.222	14.67
497.679	15.07
498.135	15.91
498.591	14.69
499.048	15.07
499.504	15.49
499.96	15.57
500.416	15.55
500.872	15.83
501.329	14.9
501.785	15.27
502.241	15.52
502.697	17.34
503.153	16
503.609	15.43
504.065	14.94
504.521	15.14
504.977	16.52
505.432	13.97
505.888	17.53
506.344	15.84
506.8	15.32
507.256	16.48
507.711	16.1
508.167	17.18
508.623	16.01
509.078	15.86
509.534	15.16
509.99	18.06
510.445	16.65
510.901	16.41
511.356	16.95
511.812	15.9
512.267	15.82
512.722	17.21
513.178	16.39
513.633	18.19
514.089	15.83
514.544	18.41
514.999	17.37
515.454	17.67
515.91	15.99
516.365	17.79
516.82	15.81
517.275	17.65
517.73	16.48
518.185	17.24
518.64	17.41
519.095	16.74
519.55	17.63
520.005	16.9
520.46	17.42
520.915	17.64
521.37	16.46
521.825	16.1
522.28	17.24
522.734	18.13
523.189	16.39
523.644	16.09
524.099	18.26
524.553	16.43
525.008	16.93
525.462	17.93
525.917	19.17
526.372	16.68
526.826	18.88
527.281	17.95
527.735	16.86
528.19	18.91
528.644	18.39
529.098	16.94
529.553	16.99
530.007	17.66
530.461	17.29
530.916	17.64
531.37	17.46
531.824	17.68
532.278	16.46
532.732	20.11
533.186	17.48
533.641	18.09
534.095	19.8
534.549	18.07
535.003	18.72
535.457	19.95
535.911	17.93
536.365	19.81
536.818	18.07
537.272	18.73
537.726	19.43
538.18	18.63
538.634	18.27
539.087	18.58
539.541	18.56
539.995	17.4
540.449	19.98
540.902	18.5
541.356	18.77
541.809	18.47
542.263	18.84
542.716	19.97
543.17	18.98
543.623	18.5
544.077	20.57
544.53	20.36
544.984	19.49
545.437	19.97
545.89	18.87
546.344	20.15
546.797	21.44
547.25	20.68
547.703	21.56
548.157	19.37
548.61	18.9
549.063	21.68
549.516	20.3
549.969	22.08
550.422	20.82
550.875	21.2
551.328	21.65
551.781	22.13
552.234	21.46
552.687	20.69
553.14	21.84
553.592	20.99
554.045	21.47
554.498	21.95
554.951	22.21
555.404	21.66
555.856	23.27
556.309	21.75
556.762	22.66
557.214	21.6
557.667	21.97
558.119	21.69
558.572	20.66
559.024	22.99
559.477	21.38
559.929	22.81
560.382	21.23
560.834	21.12
561.286	21.78
561.739	21.39
562.191	22.09
562.643	21.31
563.095	23.32
563.548	21.61
564	21.77
564.452	23.62
564.904	22
565.356	22.08
565.808	22.72
566.26	22.43
566.712	22.44
567.164	22.79
567.616	21.34
568.068	23.68
568.52	22.7
568.972	22.77
569.424	22.28
569.876	22.66
570.327	23.54
570.779	22.02
571.231	23.41
571.682	23.41
572.134	23.03
572.586	23.95
573.037	21.77
573.489	21.84
573.941	22.27
574.392	22.34
574.844	22.03
575.295	22.72
575.746	21.96
576.198	22.79
576.649	22.49
577.101	23.07
577.552	23.6
578.003	22.58
578.454	22.78
578.906	23.32
579.357	22.73
579.808	22.92
580.259	22.6
580.71	24.93
581.161	23.37
581.612	22.84
582.064	22.57
582.515	23.88
582.965	23.82
583.416	23.19
583.867	22.78
584.318	24.24
584.769	23.49
585.22	23.26
585.671	23.65
586.122	24.84
586.572	24.69
587.023	23.88
587.474	22.7
587.924	24.65
588.375	23.57
588.826	24.99
589.276	23.99
589.727	23.04
590.177	23.21
590.628	24.54
591.078	22.9
591.529	24.52
591.979	23.32
592.429	23.98
592.88	25.03
593.33	24.6
593.78	24.04
594.231	23.98
594.681	23.77
595.131	24.59
595.581	24.49
596.031	24.11
596.481	25.9
596.932	24.57
597.382	25.14
597.832	24.48
598.282	23.78
598.732	24.62
599.182	23.3
599.632	24.32
600.081	24.31
600.531	25.26
600.981	24.7
601.431	24.13
601.881	24.38
602.33	24.48
602.78	24.93
603.23	25.88
603.679	24.48
604.129	24.83
604.579	25.98
605.028	24.67
605.478	23.95
605.927	24.29
606.377	24.41
606.826	24.8
607.276	25.75
607.725	25.2
608.175	25.26
608.624	25.26
609.073	24.84
609.522	25.38
609.972	24.15
610.421	25
610.87	24.27
611.319	25.22
611.768	25.79
612.218	25.66
612.667	25.91
613.116	24.62
613.565	24.77
614.014	23.58
614.463	25.33
614.912	24.55
615.361	25.41
615.81	24.7
616.258	24.71
616.707	26.14
617.156	25.52
617.605	25.68
618.054	24.89
618.502	25.46
618.951	25.75
619.4	24.61
619.848	25.55
620.297	24.86
620.745	25.64
621.194	24.89
621.642	25.99
622.091	25.11
622.539	24.88
622.988	25.11
623.436	25.54
623.885	25.67
624.333	25.11
624.781	25.93
625.23	25.54
625.678	25.27
626.126	25.83
626.574	24.99
627.022	25.33
627.471	25.73
627.919	25.19
628.367	25.51
628.815	24.68
629.263	25.09
629.711	25.43
630.159	25.2
630.607	24.62
631.055	24.8
631.503	25.46
631.95	24.75
632.398	24.96
632.846	25.45
633.294	25.71
633.742	25.43
634.189	25.91
634.637	25.62
635.085	24.6
635.532	24.1
635.98	24.91
636.427	25.45
636.875	24.58
637.323	24.86
637.77	24.56
638.217	25.52
638.665	25.54
639.112	24.83
639.56	24.69
640.007	25.91
640.454	26.42
640.902	25.27
641.349	24.63
641.796	24
642.243	25.78
642.69	25.06
643.138	25.05
643.585	25.43
644.032	26
644.479	25.28
644.926	24.98
645.373	25.85
645.82	26.02
646.267	25.06
646.714	24.65
647.161	25.76
647.607	25.44
648.054	25.68
648.501	26.08
648.948	25.85
649.395	26.12
649.841	24.46
650.288	26.11
650.735	25.68
651.181	25.23
651.628	26.32
652.075	25.49
652.521	25.65
652.968	26.79
653.414	24.95
653.861	25.67
654.307	25.51
654.753	25.56
655.2	26.33
655.646	25.43
656.092	26.58
656.539	26.26
656.985	24.63
657.431	25.79
657.877	25.61
658.324	26.43
658.77	26.69
659.216	25.91
659.662	26.93
660.108	26.62
660.554	26.51
661	26.83
661.446	26.88
661.892	25.45
662.338	25.85
662.784	26.25
663.23	26.96
663.675	26.21
664.121	27.14
664.567	27.17
665.013	25.59
665.458	27.33
665.904	27.23
666.35	26.5
666.795	26.4
667.241	27.41
667.687	26.2
668.132	26.42
668.578	26.46
669.023	26.9
669.469	27.23
669.914	27.63
670.359	27.72
670.805	26.88
671.25	27.28
671.695	26.66
672.141	26.92
672.586	26.9
673.031	28.06
673.476	26.64
673.922	28.12
674.367	27.91
674.812	26.89
675.257	28.08
675.702	27.26
676.147	27.97
676.592	26.48
677.037	27.18
677.482	27.8
677.927	26.94
678.372	27.88
678.817	27.5
679.261	27.74
679.706	28.26
680.151	27.65
680.596	26.77
681.04	27.72
681.485	27.16
681.93	27.58
682.374	28.14
682.819	28.08
683.264	27.75
683.708	28.07
684.153	27.93
684.597	28.27
685.042	27.8
685.486	28.23
685.93	27.21
686.375	27.42
686.819	28.02
687.263	27.56
687.708	28.12
688.152	27.07
688.596	27.93
689.04	27.59
689.485	28.44
689.929	27.88
690.373	28.36
690.817	28.18
691.261	27.94
691.705	27.65
692.149	27.99
692.593	27.12
693.037	27.44
693.481	28.03
693.925	28
694.369	27.5
694.812	27.73
695.256	28.08
695.7	27.94
696.144	27.9
696.587	27.25
697.031	28.78
697.475	28.74
697.918	27.71
698.362	27.91
698.806	28.92
699.249	28.24
699.693	27.76
700.136	27.68
700.58	27.8
701.023	27.86
701.466	27.4
701.91	27.97
702.353	28.26
702.796	27.38
703.24	27.79
703.683	28.06
704.126	28.91
704.569	27.57
705.013	28.24
705.456	28.06
705.899	28.36
706.342	28.13
706.785	27.5
707.228	28.46
707.671	27.75
708.114	28.84
708.557	28.09
709	27.77
709.443	28.72
709.886	27.88
710.328	28.73
710.771	27.89
711.214	28.33
711.657	28.62
712.099	28.55
712.542	28.41
712.985	29.12
713.427	28.17
713.87	28.21
714.313	27.97
714.755	28.03
715.198	28.43
715.64	27.96
716.083	28.41
716.525	27.72
716.967	27.97
717.41	28.07
717.852	28.53
718.295	28.17
718.737	28.72
719.179	28.45
719.621	28.76
720.063	28.38
720.506	28.96
720.948	28.65
721.39	28.5
721.832	27.99
722.274	28.21
722.716	28.15
723.158	27.97
723.6	28.17
724.042	27.82
724.484	28.4
724.926	28.19
725.368	27.73
725.81	28.08
726.251	28.01
726.693	27.75
727.135	27.93
727.577	28.14
728.018	28.27
728.46	27.06
728.902	28.17
729.343	27.26
729.785	28.53
730.226	28.59
730.668	27.56
731.109	28.28
731.551	28.68
731.992	27.98
732.434	28.14
732.875	28
733.316	29.02
733.758	28.29
734.199	28.06
734.64	28.26
735.081	27.76
735.523	28.96
735.964	27.9
736.405	28.32
736.846	28.75
737.287	28.21
737.728	27.93
738.169	28.83
738.61	28.34
739.051	28.49
739.492	28.71
739.933	27.67
740.374	29.35
740.815	28.55
741.256	28.65
741.696	29.17
742.137	28.32
742.578	29.34
743.019	28.38
743.459	28.56
743.9	28.59
744.341	28.46
744.781	28.11
745.222	27.55
745.662	28.83
746.103	28.28
746.543	28.6
746.984	28.56
747.424	28.07
747.865	28.39
748.305	28.18
748.745	27.41
749.186	28.46
749.626	29.42
750.066	28.65
750.506	28.95
750.947	27.89
751.387	28.99
751.827	27.88
752.267	28.53
752.707	29.08
753.147	28.99
753.587	28.59
754.027	28.65
754.467	28.62
754.907	28.76
755.347	29.13
755.787	28.49
756.227	28.41
756.667	28.74
757.107	28.97
757.546	29
757.986	28.7
758.426	28.93
758.865	29.26
759.305	28.18
759.745	27.91
760.184	28.1
760.624	28.63
761.063	28.34
761.503	28.14
761.943	27.76
762.382	28.61
762.821	29.23
763.261	28.32
763.7	28.02
764.14	28.26
764.579	28.57
765.018	28.5
765.457	28.65
765.897	29.15
766.336	28.8
766.775	27.96
767.214	28.32
767.653	28.38
768.092	28.48
768.531	28.34
768.97	28.89
769.409	28.17
769.848	28.37
770.287	28.84
770.726	28.81
771.165	28.65
771.604	28.77
772.043	28.78
772.482	28.87
772.92	29.06
773.359	28.69
773.798	28.4
774.237	28.36
774.675	29.13
775.114	27.89
775.553	28.95
775.991	29.15
776.43	28.2
776.868	28.46
777.307	28.56
777.745	28.15
778.184	28.97
778.622	29.19
779.06	29.18
779.499	28.75
779.937	28.82
780.375	28.8
780.814	29.6
781.252	28.03
781.69	28.03
782.128	28.91
782.566	28.64
783.004	28.27
783.443	28.44
783.881	28.74
784.319	28.58
784.757	29.08
785.195	28.77
785.633	29.33
786.071	28.5
786.508	29
786.946	28.81
787.384	28.47
787.822	28.55
788.26	29.1
788.697	28.03
789.135	28.63
789.573	29.26
790.011	29.05
790.448	28.71
790.886	28.99
791.323	28.41
791.761	29.13
792.198	29.59
792.636	28.54
793.073	27.89
793.511	28.53
793.948	28.55
794.386	29.02
794.823	28.44
795.26	28.64
795.698	28.39
796.135	29.08
796.572	29.28
797.009	28.13
797.446	29.07
797.884	29.73
798.321	29.54
798.758	29.22
799.195	29.32
799.632	28.77
800.069	28.92
800.506	28.62
800.943	29.52
801.38	28.9
801.817	29.22
802.254	28.88
802.69	28.84
803.127	29.11
803.564	28.63
804.001	28.74
804.438	29.52
804.874	28.93
805.311	29.02
805.748	29.44
806.184	28.92
806.621	28.61
807.057	29.71
807.494	28.96
807.93	29.34
808.367	28.61
808.803	28.89
809.24	29.18
809.676	29.32
810.112	28.58
810.549	28.61
810.985	28.46
811.421	29.38
811.857	29.03
812.294	28.49
812.73	29.36
813.166	28.38
813.602	29.16
814.038	28.62
814.474	28.47
814.91	28.92
815.346	28.93
815.782	29.23
816.218	29.21
816.654	28.46
817.09	29.32
817.526	29.17
817.962	28.31
818.398	28.94
818.833	29.35
819.269	28.91
819.705	29.68
820.141	28.23
820.576	28.54
821.012	29.05
821.447	28.54
821.883	29.37
822.319	29.01
822.754	28.81
823.19	29.17
823.625	28.86
824.061	29.34
824.496	28.66
824.931	28.76
825.367	29.09
825.802	28.43
826.237	29.36
826.673	29.42
827.108	29.25
827.543	29
827.978	28.79
828.413	28.85
828.849	28.88
829.284	28.37
829.719	29.31
830.154	29.12
830.589	28.95
831.024	28.87
831.459	28.71
831.894	28.82
832.329	29.31
832.763	29.33
833.198	29.36
833.633	28.82
834.068	29.27
834.503	29.55
834.937	29.22
835.372	28.71
835.807	29.16
836.241	28.76
836.676	29.12
837.111	29.32
837.545	29.3
837.98	28.97
838.414	29.26
838.849	29.29
839.283	29.33
839.717	28.43
840.152	28.66
840.586	29.11
841.021	28.78
841.455	28.8
841.889	28.97
842.323	29.27
842.758	29.1
843.192	29.04
843.626	28.76
844.06	29.2
844.494	29.33
844.928	30.02
845.362	29.29
845.796	29.46
846.23	29.15
846.664	29.06
847.098	28.6
847.532	29.09
847.966	29.21
848.4	28.9
848.834	29.34
849.267	29.3
849.701	29.06
850.135	29.13
850.569	28.41
851.002	28.76
851.436	28.43
851.87	28.76
852.303	28.99
852.737	29.3
853.17	29.11
853.604	29.03
854.037	29.14
854.471	29.58
854.904	29.25
855.337	29.68
855.771	29.27
856.204	29.24
856.637	29.16
857.071	29.42
857.504	28.79
857.937	29.36
858.37	29.18
858.804	29.46
859.237	29.24
859.67	29.47
860.103	29.08
860.536	28.62
860.969	28.72
861.402	29
861.835	29
862.268	29.19
862.701	28.92
863.134	28.44
863.566	29.04
863.999	29.19
864.432	28.74
864.865	28.87
865.298	28.95
865.73	28.92
866.163	28.95
866.596	29.11
867.028	29.43
867.461	29.5
867.893	29.11
868.326	29.34
868.758	29.58
869.191	29.63
869.623	28.95
870.056	29.46
870.488	28.83
870.92	28.95
871.353	29.01
871.785	28.8
872.217	29.34
872.65	28.9
873.082	29.54
873.514	29.02
873.946	28.99
874.378	29.12
874.81	29.33
875.243	29.19
875.675	29.13
876.107	29.08
876.539	29.55
876.971	29.41
877.403	29.16
877.834	29.27
878.266	29.25
878.698	29.33
879.13	29.17
879.562	29.36
879.994	28.92
880.425	28.88
880.857	29.53
881.289	28.68
881.72	29.19
882.152	29.35
882.584	29.53
883.015	29.19
883.447	29.23
883.878	29.52
884.31	29.59
884.741	29.2
885.173	29.32
885.604	29.23
886.035	29.33
886.467	28.94
886.898	28.94
887.329	29.39
887.76	29.13
888.192	29.72
888.623	28.9
889.054	29.21
889.485	29.29
889.916	29.39
890.347	29.26
890.778	29.47
891.209	29.35
891.64	29.07
892.071	29.18
892.502	29.35
892.933	29.35
893.364	29.31
893.795	29.37
894.226	29.67
894.657	29.27
895.087	29.77
895.518	29.65
895.949	29.34
896.38	29.25
896.81	28.93
897.241	29.8
897.671	28.98
898.102	29.06
898.533	29.19
898.963	29.7
899.394	29.07
899.824	30
900.254	29.24
900.685	29.6
901.115	29.37
901.546	29.48
901.976	29.84
902.406	29.36
902.836	29.01
903.267	29.15
903.697	29.41
904.127	28.93
904.557	29.05
904.987	29.08
905.417	29.65
905.847	29.18
906.277	29.58
906.707	29.34
907.137	29.66
907.567	29.68
907.997	28.99
908.427	29.4
908.857	29.4
909.287	29.62
909.717	29.76
910.146	29.44
910.576	29.66
911.006	29.08
911.436	29.37
911.865	29.33
912.295	29.64
912.724	29.11
913.154	29.89
913.584	29.72
914.013	30.13
914.443	29.44
914.872	29.54
915.302	29.01
915.731	29.36
916.16	29.11
916.59	29.6
917.019	29.55
917.448	29.12
917.878	29.34
918.307	29.12
918.736	29.39
919.165	29.36
919.594	29.83
920.023	28.95
920.452	29.66
920.882	29.72
921.311	29.51
921.74	29.2
922.169	29.31
922.597	29.31
923.026	29.36
923.455	29.76
923.884	29.4
924.313	29.6
924.742	29.56
925.171	30.11
925.599	29.67
926.028	30
926.457	29.35
926.885	29.61
927.314	29.45
927.743	29.71
928.171	29.3
928.6	29.48
929.028	29.79
929.457	29.61
929.885	29.24
930.314	29.59
930.742	29.48
931.17	29.51
931.599	29.57
932.027	29.68
932.455	29.53
932.884	29.59
933.312	29.42
933.74	29.3
934.168	29.49
934.596	29.79
935.025	29.58
935.453	29.12
935.881	29.58
936.309	29.61
936.737	29.22
937.165	29.83
937.593	29.54
938.021	29.3
938.449	29.48
938.876	29.53
939.304	29.14
939.732	29.22
940.16	29.26
940.588	28.93
941.015	29.34
941.443	29.27
941.871	29.74
942.298	29.38
942.726	29.34
943.154	29.48
943.581	30.18
944.009	29.11
944.436	29.06
944.864	29.66
945.291	29.6
945.718	29.14
946.146	29.35
946.573	29.33
947.001	29.77
947.428	29.35
947.855	29.42
948.282	28.49
948.71	29.06
949.137	29.06
949.564	28.9
949.991	28.63
950.418	29.01
950.845	29.26
951.272	29.14
951.699	29.21
952.126	28.76
952.553	29.17
952.98	29.34
953.407	29.44
953.834	29.43
954.261	29.19
954.688	28.96
955.114	29.07
955.541	29.58
955.968	29.14
956.395	29.45
956.821	29.04
957.248	29.82
957.674	29.16
958.101	29.5
958.528	29.18
958.954	29.29
959.381	29.17
959.807	28.98
960.234	29.14
960.66	29.12
961.086	28.99
961.513	29.22
961.939	29.28
962.365	29.42
962.792	29.35
963.218	29.3
963.644	29.73
964.07	29.56
964.496	29.13
964.923	29.55
965.349	29.25
965.775	29.82
966.201	29.39
966.627	29.02
967.053	29.44
967.479	29.05
967.905	29.6
968.331	29.51
968.756	29.28
969.182	29.32
969.608	29.1
970.034	29.34
970.46	29.69
970.885	29.4
971.311	29.43
971.737	29.04
972.162	29.28
972.588	29.35
973.014	29.87
973.439	29.47
973.865	29.42
974.29	29.2
974.716	29.44
975.141	29.43
975.567	29.39
975.992	29.09
976.417	29.88
976.843	29.66
977.268	29.41
977.693	29.46
978.119	29.51
978.544	29.76
978.969	29.38
979.394	29.62
979.819	29.38
980.244	29.35
980.669	29.62
981.095	29.27
981.52	29.41
981.945	29.32
982.369	29.96
982.794	29.26
983.219	29.23
983.644	29.19
984.069	29.35
984.494	29.37
984.919	29.37
985.343	29.3
985.768	29.1
986.193	29.32
986.618	29.28
987.042	29.31
987.467	29.27
987.891	29.31
988.316	29.3
988.741	29.86
989.165	29.2
989.59	29.65
990.014	29.74
990.438	29.47
990.863	29.41
991.287	29.89
991.712	29.17
992.136	29.34
992.56	29.4
992.984	29.45
993.409	29.59
993.833	29.4
994.257	29.52
994.681	29.36
995.105	29.28
995.529	29.58
995.953	29.41
996.377	29.58
996.801	29.62
997.225	29.68
997.649	29.4
998.073	29.42
998.497	29.4
998.921	29.71
999.345	30.06
999.769	29.99
1000.192	29.82
1000.616	29.66
1001.04	29.38
1001.464	29.59
1001.887	29.69
1002.311	29.54
1002.734	29.79
1003.158	29.49
1003.582	29.44
1004.005	29.56
1004.429	29.68
1004.852	29.81
1005.275	29.09
1005.699	29.86
1006.122	29.71
1006.546	29.59
1006.969	30.12
1007.392	30.11
1007.815	29.69
1008.239	29.51
1008.662	29.4
1009.085	29.84
1009.508	30.15
1009.931	29.84
1010.354	29.68
1010.778	30.08
1011.201	29.86
1011.624	29.77
1012.047	29.72
1012.469	29.73
1012.892	29.92
1013.315	29.99
1013.738	30.24
1014.161	30.08
1014.584	29.55
1015.007	29.58
1015.429	29.53
1015.852	30
1016.275	29.99
1016.697	29.82
1017.12	29.57
1017.543	29.94
1017.965	30.12
1018.388	29.91
1018.81	29.75
1019.233	29.9
1019.655	29.99
1020.078	29.92
1020.5	29.88
1020.922	30.01
1021.345	29.53
1021.767	29.97
1022.189	29.92
1022.612	30.28
1023.034	29.38
1023.456	30.16
1023.878	30.08
1024.301	30.04
1024.723	30.42
1025.145	30.21
1025.567	29.93
1025.989	29.84
1026.411	30.38
1026.833	29.87
1027.255	29.76
1027.677	29.84
1028.099	30.13
1028.52	30.04
1028.942	29.47
1029.364	29.34
1029.786	29.76
1030.208	29.53
1030.629	30.14
1031.051	30.26
1031.473	29.55
1031.894	29.37
1032.316	30.17
1032.738	29.96
1033.159	29.92
1033.581	30.02
1034.002	30.08
1034.424	30.08
1034.845	29.67
1035.267	30.19
1035.688	30.19
1036.109	30.08
1036.531	30.24
1036.952	30.1
1037.373	29.67
1037.794	29.94
1038.216	30.05
1038.637	30.3
1039.058	29.91
1039.479	30.07
1039.9	30.04
1040.321	30.04
1040.742	30.47
1041.163	29.83
1041.584	29.85
1042.005	29.73
1042.426	29.92
1042.847	29.82
1043.268	30.28
1043.689	30.11
1044.11	29.57
1044.53	30.36
1044.951	30.07
1045.372	29.36
1045.793	29.87
1046.213	30.04
1046.634	30.59
1047.055	30.13
1047.475	29.96
1047.896	30.2
1048.316	30.05
1048.737	30.9
1049.157	30.26
1049.578	30.18
1049.998	30.46
1050.419	30.32
1050.839	30.33
1051.259	30.24
1051.68	30.05
1052.1	30
1052.52	30.35
1052.94	30.6
1053.361	29.49
1053.781	29.7
1054.201	30.46
1054.621	31.12
1055.041	30.19
1055.461	30.1
1055.881	30.85
1056.301	29.29
1056.721	29.77
1057.141	30.03
1057.561	30.12
1057.981	30.4
1058.401	30.04
1058.82	30.06
1059.24	30.28
1059.66	30.7
1060.08	30.67
1060.499	29.21
1060.919	30.46
1061.339	30.42
1061.758	30.21
1062.178	29.58
1062.598	30.35
1063.017	30.63
1063.437	29.53
1063.856	30.59
1064.276	30.28
1064.695	30.32
1065.114	30.72
1065.534	30.69
1065.953	29.51
1066.372	30.21
1066.792	30.28
1067.211	29.37
1067.63	30.32
1068.049	31.21
1068.469	29.67
1068.888	29.6
1069.307	30.04
1069.726	30.52
1070.145	30.3
1070.564	29.34
1070.983	30.64
1071.402	29.77
1071.821	29.99
1072.24	30.25
1072.659	30.5
1073.078	30.97
1073.496	30.15
1073.915	30.49
1074.334	29.81
1074.753	30.31
1075.171	30.47
1075.59	30.21
1076.009	30.04
1076.427	29.95
1076.846	29.58
1077.265	30.48
1077.683	29.51
1078.102	30.64
1078.52	29.52
1078.939	30.08
1079.357	30.07
1079.776	29.9
1080.194	30.55
1080.612	30.24
1081.031	29.36
1081.449	29.77
1081.867	30.38
1082.285	30.11
1082.704	30.15
1083.122	29.48
1083.54	31.71
1083.958	30.74
1084.376	30.27
1084.794	31.39
1085.212	29.83
1085.63	29.42
1086.048	29.99
1086.466	30.72
1086.884	31.03
1087.302	29.97
1087.72	29.7
1088.138	30.47
1088.555	29.88
1088.973	30.38
1089.391	30.97
1089.809	30.24
1090.226	29.35
1090.644	30.18
1091.062	29.19
1091.479	29.27
1091.897	30.22
1092.314	30.31
1092.732	32.17
1093.15	30.49
1093.567	30.12
1093.984	30.11
1094.402	28.71
1094.819	28.74
1095.237	28.67
1095.654	29.37
1096.071	30.13
1096.488	30.39
1096.906	29.45
1097.323	30.34
1097.74	30.3
1098.157	29.76
1098.574	29.38
1098.991	29
1099.409	30.16
1099.826	28.27
1100.243	29.23
1100.66	30.29
1101.077	29.57
1101.494	28.58
1101.91	28.13
1102.327	30.51
1102.744	30.18
1103.161	28.7
1103.578	30.34
1103.994	30.27
1104.411	30.56
1104.828	29.5
1105.245	29.66
1105.661	32.16
1106.078	29.91
1106.494	31.23
1106.911	28.25
1107.328	29.08
1107.744	29.62
1108.161	30.09
1108.577	28.4
1108.993	29.98
1109.41	27.59
1109.826	28.03
1110.242	28.37
1110.659	28.63
1111.075	31.09
1111.491	28.14
1111.908	31.96
1112.324	28.28
1112.74	17.33
1113.156	27.65
1113.572	29.53
1113.988	28.89
1114.404	30.96
1114.82	26.64
1115.236	29.12
1115.652	28.93
1116.068	28.92
1116.484	27.06
1116.9	26.65
1117.316	25.48
1117.732	5.88
1118.147	24.39
1118.563	-14.29
1118.979	162.5
