Data from JCR0012_Black1_Reflection_00003.txt Node
Date: Fri Jul 31 16:05:59 ACST 2020
User: Stacey Dix
Spectrometer: MAYP113282
Scans to average: 1
Trigger mode: 0
Integration Time (sec): 1.000000E-1
Electric dark correction enabled: true
Boxcar width: 0
XAxis mode: Wavelengths
Number of Pixels in Spectrum: 2068
>>>>>Begin Spectral Data<<<<<
198.791	775
199.266	78.57
199.74	100
200.215	-500
200.69	-11.68
201.164	6.59
201.639	-16.45
202.114	21.27
202.588	-0.7
203.063	13.88
203.537	-3.45
204.012	9.57
204.486	3.72
204.961	-11.63
205.435	-15.1
205.909	12.6
206.384	-20
206.858	28.45
207.332	17.74
207.807	3.04
208.281	2.29
208.755	2.68
209.229	11.39
209.703	22.96
210.177	2.58
210.651	32.33
211.126	-1.38
211.6	27
212.074	0.79
212.548	14.29
213.021	-4.35
213.495	2.7
213.969	17.27
214.443	-13.45
214.917	11.24
215.391	14.11
215.864	5.19
216.338	5.16
216.812	4
217.286	0.4
217.759	10.9
218.233	3.97
218.706	12.11
219.18	13
219.654	8.41
220.127	15.19
220.6	7.74
221.074	-0.18
221.547	5.9
222.021	-2.1
222.494	5.7
222.967	13.19
223.441	6.83
223.914	2.48
224.387	4.08
224.86	4.99
225.334	5.41
225.807	7.69
226.28	-6.82
226.753	2.14
227.226	4.63
227.699	7.2
228.172	2.77
228.645	4.25
229.118	5.84
229.591	2.9
230.064	4.98
230.537	2.95
231.01	3.29
231.482	5.6
231.955	6.19
232.428	5.08
232.901	4.08
233.373	5.88
233.846	4.32
234.319	4.36
234.791	4.46
235.264	5.12
235.736	4.2
236.209	2.78
236.681	4.56
237.154	3.95
237.626	3.51
238.099	2.26
238.571	4.33
239.044	4.44
239.516	4.18
239.988	4.74
240.46	4.23
240.933	3.43
241.405	4.53
241.877	3.32
242.349	4.34
242.821	3.11
243.293	4.04
243.765	2.46
244.237	3.66
244.71	2.75
245.181	3.36
245.653	3.68
246.125	3.85
246.597	3.38
247.069	3.88
247.541	4.38
248.013	4.27
248.485	4.42
248.956	3.58
249.428	4.58
249.9	3.66
250.371	3.48
250.843	3.58
251.315	3.79
251.786	2.73
252.258	3.05
252.729	4.38
253.201	4.34
253.672	3.76
254.144	3.78
254.615	3.07
255.086	3.6
255.558	4.13
256.029	4.25
256.5	3.6
256.972	3.6
257.443	3.75
257.914	1.73
258.385	3.11
258.856	3.72
259.327	3.67
259.799	3.34
260.27	2.45
260.741	3.81
261.212	3.38
261.683	3.61
262.154	3.11
262.624	3.75
263.095	3.46
263.566	3.23
264.037	2.89
264.508	3.23
264.979	3.3
265.449	2.77
265.92	2.42
266.391	2.39
266.861	3.29
267.332	3.47
267.803	3.08
268.273	3.45
268.744	3.18
269.214	4.13
269.685	2.91
270.155	3.1
270.626	3.72
271.096	2.67
271.566	3.94
272.037	3.16
272.507	2.97
272.977	4.14
273.448	2.75
273.918	3.1
274.388	4.36
274.858	3.43
275.328	2.45
275.798	3.11
276.268	2.8
276.738	2.67
277.208	3.19
277.678	2.84
278.148	3.25
278.618	3.75
279.088	3.95
279.558	2.79
280.028	3.03
280.498	2.03
280.968	3.45
281.437	3.27
281.907	3.06
282.377	2.67
282.847	3.39
283.316	2.08
283.786	3.37
284.255	2.64
284.725	2.77
285.194	3.24
285.664	2.31
286.133	2.67
286.603	2.83
287.072	2.51
287.542	3.04
288.011	2.42
288.48	2.07
288.95	4.22
289.419	3.12
289.888	3.41
290.357	3.07
290.827	3.33
291.296	2.62
291.765	3.02
292.234	3.32
292.703	3
293.172	3.2
293.641	2.74
294.11	3.29
294.579	3.04
295.048	2.4
295.517	3.48
295.986	3.43
296.455	3.62
296.923	3.02
297.392	3
297.861	3.23
298.33	2.9
298.798	3.4
299.267	2.54
299.736	2.12
300.204	3.7
300.673	2.17
301.141	2.6
301.61	4.08
302.079	3.13
302.547	2.3
303.015	3.21
303.484	2.84
303.952	3.28
304.421	2.64
304.889	1.91
305.357	2.81
305.825	2.2
306.294	2.61
306.762	2.55
307.23	2.52
307.698	2.53
308.166	2.14
308.634	3.07
309.103	3.34
309.571	2.42
310.039	2.44
310.507	3.09
310.975	3.11
311.442	3.48
311.91	2.94
312.378	3.57
312.846	2.61
313.314	3.15
313.782	3.16
314.249	2.99
314.717	3.46
315.185	3.93
315.652	2.87
316.12	2.97
316.588	2.8
317.055	3.52
317.523	3.15
317.99	2.81
318.458	3.11
318.925	3.57
319.393	3.21
319.86	3.34
320.328	4.19
320.795	4.25
321.262	3.52
321.73	3.42
322.197	3.13
322.664	4.36
323.131	4.02
323.598	4.71
324.066	5.33
324.533	4.63
325	5.37
325.467	5.28
325.934	6.85
326.401	6.59
326.868	7.16
327.335	8.86
327.802	7.43
328.269	7.38
328.735	8.44
329.202	8.58
329.669	9.15
330.136	8.69
330.603	9.45
331.069	10.75
331.536	11.36
332.003	10.21
332.469	9.23
332.936	10.61
333.402	9.77
333.869	10.95
334.336	12.13
334.802	10.67
335.268	10.7
335.735	12.23
336.201	11.02
336.668	10.5
337.134	11.1
337.6	11.74
338.067	10.54
338.533	11.8
338.999	10.09
339.465	8.54
339.931	10.66
340.398	11.2
340.864	10.54
341.33	9.8
341.796	10.26
342.262	9.89
342.728	9.45
343.194	10.59
343.66	9.62
344.126	10.64
344.592	10.35
345.057	10.32
345.523	9.67
345.989	9.96
346.455	9.55
346.921	9.1
347.386	9.52
347.852	8.62
348.318	10.41
348.783	8.25
349.249	10.13
349.714	9.89
350.18	10.68
350.645	9.73
351.111	9.79
351.576	10.64
352.042	10.37
352.507	9.48
352.973	9.33
353.438	8.51
353.903	10.47
354.369	10.29
354.834	9.71
355.299	9.03
355.764	11.15
356.229	9.31
356.695	10
357.16	9.67
357.625	9.05
358.09	9.42
358.555	9.84
359.02	9.53
359.485	8.55
359.95	10.1
360.415	10.77
360.879	9.29
361.344	10.33
361.809	9.95
362.274	9.68
362.739	9.9
363.203	11.06
363.668	10.12
364.133	10.36
364.597	10.12
365.062	10.67
365.527	9.33
365.991	10.03
366.456	9.56
366.92	11.24
367.385	12.5
367.849	8.35
368.314	10.5
368.778	10.68
369.242	10.08
369.707	10.42
370.171	9.67
370.635	11.29
371.1	9.15
371.564	12.21
372.028	11.7
372.492	11.86
372.956	10.89
373.42	10.71
373.884	10.91
374.348	10.69
374.812	10.39
375.276	11.49
375.74	11.43
376.204	11.48
376.668	10.58
377.132	11.39
377.596	11.81
378.06	11.06
378.524	12.07
378.987	10.25
379.451	10.81
379.915	11.08
380.378	10.53
380.842	12.11
381.306	9.99
381.769	13.03
382.233	11.19
382.696	11.51
383.16	10.51
383.623	12.11
384.087	11.52
384.55	10.6
385.014	10.66
385.477	11.21
385.94	10.53
386.404	12.48
386.867	10.71
387.33	12.52
387.793	11.1
388.256	11.4
388.72	9.89
389.183	9.87
389.646	10.59
390.109	11.94
390.572	11.97
391.035	10.59
391.498	11.03
391.961	11.29
392.424	10.53
392.887	11.26
393.35	11.47
393.812	11.82
394.275	11.49
394.738	11.65
395.201	11.18
395.664	11.52
396.126	12.31
396.589	10.71
397.052	10.92
397.514	11.81
397.977	10.9
398.439	11.14
398.902	11.15
399.364	10.36
399.827	11.13
400.289	10.77
400.752	12.17
401.214	10.94
401.676	11.4
402.139	11.41
402.601	11.25
403.063	10.46
403.525	11.57
403.988	10.78
404.45	10.39
404.912	11.07
405.374	11.56
405.836	10.01
406.298	9.54
406.76	11.15
407.222	9.97
407.684	11.45
408.146	10.33
408.608	9.81
409.07	11.16
409.532	9.87
409.994	10.1
410.456	10.62
410.917	10.08
411.379	9.95
411.841	10.8
412.303	9.19
412.764	11.59
413.226	10.67
413.687	9.62
414.149	11.16
414.611	9.59
415.072	8.24
415.534	11.24
415.995	10.4
416.457	10.78
416.918	11.81
417.379	11.06
417.841	10.02
418.302	10.12
418.763	9.42
419.225	10.58
419.686	11.46
420.147	10.73
420.608	11.78
421.069	9.94
421.53	13.32
421.991	12.92
422.453	11.11
422.914	10.3
423.375	11.06
423.836	10.25
424.297	10.79
424.757	10.45
425.218	11.94
425.679	10.32
426.14	12.63
426.601	10.98
427.062	11.87
427.522	12.58
427.983	11.86
428.444	13.19
428.904	10.34
429.365	14.35
429.826	11.3
430.286	13.59
430.747	12.25
431.207	10.8
431.668	12.74
432.128	11.23
432.589	11.81
433.049	13.14
433.509	15.01
433.97	11.1
434.43	14.56
434.89	12.89
435.351	12.42
435.811	12.72
436.271	12.69
436.731	13.19
437.191	11.2
437.651	13.64
438.112	14.15
438.572	10.98
439.032	12.07
439.492	12.99
439.952	13.09
440.412	13.68
440.871	15.02
441.331	10.35
441.791	11.54
442.251	12.89
442.711	13.15
443.171	15.43
443.63	13.84
444.09	12.74
444.55	12.55
445.009	12.67
445.469	12.32
445.929	11.05
446.388	13.4
446.848	11.72
447.307	11.76
447.767	15.36
448.226	14.07
448.686	13.41
449.145	12.97
449.604	13.74
450.064	14.93
450.523	13.58
450.982	15.12
451.442	15.27
451.901	13.56
452.36	14.18
452.819	12.99
453.278	14.47
453.737	13.11
454.197	14.56
454.656	14.24
455.115	12.13
455.574	14.72
456.033	15.42
456.492	13.51
456.95	15.27
457.409	14.97
457.868	13.64
458.327	14.65
458.786	15.02
459.245	14.04
459.703	11.7
460.162	15.06
460.621	14.29
461.079	15.13
461.538	12.27
461.997	14.19
462.455	16.95
462.914	14.17
463.372	13.47
463.831	14.5
464.289	14.19
464.748	13.78
465.206	15.01
465.664	15.84
466.123	14.59
466.581	13.18
467.039	15.71
467.497	13.92
467.956	13.3
468.414	16.55
468.872	13.58
469.33	14.07
469.788	15.85
470.246	15.57
470.704	13.81
471.162	13.32
471.62	11.58
472.078	14.06
472.536	12.31
472.994	12.24
473.452	13.55
473.91	13.51
474.368	12.88
474.826	14.87
475.283	13.85
475.741	16.34
476.199	16.38
476.656	15.91
477.114	13.95
477.572	14.49
478.029	14.08
478.487	14.26
478.944	13.88
479.402	14.52
479.859	14.06
480.317	16.31
480.774	13.94
481.232	13.28
481.689	15.02
482.146	15.42
482.604	14.13
483.061	15.62
483.518	12.88
483.975	11.53
484.433	14.94
484.89	12.57
485.347	13.98
485.804	17.65
486.261	14.23
486.718	13.55
487.175	13.8
487.632	16.19
488.089	15.1
488.546	16.79
489.003	15.69
489.46	13.27
489.917	12.88
490.373	14.88
490.83	13.76
491.287	14.71
491.744	15.6
492.2	14.46
492.657	16.42
493.114	14.37
493.57	15.95
494.027	14.44
494.484	14.05
494.94	15.54
495.397	14.14
495.853	15.77
496.31	13.87
496.766	14.06
497.222	14.48
497.679	12.83
498.135	13.95
498.591	15.06
499.048	11.51
499.504	13.76
499.96	16.06
500.416	14.12
500.872	16.72
501.329	15.66
501.785	16.03
502.241	15.67
502.697	14.5
503.153	16.34
503.609	14.57
504.065	16.37
504.521	14.44
504.977	16.68
505.432	14.58
505.888	15.61
506.344	15.22
506.8	14.68
507.256	14.22
507.711	16.19
508.167	13.36
508.623	15.79
509.078	13.17
509.534	16.94
509.99	16.23
510.445	14.69
510.901	14.42
511.356	14.17
511.812	16.98
512.267	15.2
512.722	12.99
513.178	15.16
513.633	16.61
514.089	15.87
514.544	13.96
514.999	14.54
515.454	13
515.91	15.26
516.365	13.58
516.82	15.07
517.275	12.76
517.73	15.47
518.185	15.42
518.64	15.57
519.095	14.73
519.55	16.17
520.005	14.62
520.46	13.9
520.915	15.3
521.37	13.64
521.825	14.72
522.28	15.48
522.734	14.14
523.189	15.68
523.644	15.77
524.099	14.2
524.553	14.36
525.008	15.54
525.462	15.54
525.917	14.42
526.372	15.93
526.826	14.58
527.281	14.7
527.735	13.9
528.19	13.33
528.644	16.68
529.098	13.76
529.553	13.5
530.007	14.39
530.461	15.25
530.916	15.67
531.37	14.33
531.824	16.57
532.278	16.44
532.732	13.68
533.186	16.16
533.641	14.14
534.095	15.34
534.549	14.47
535.003	16.45
535.457	15.2
535.911	15.62
536.365	15.03
536.818	16.47
537.272	13.56
537.726	15.55
538.18	15.36
538.634	14.4
539.087	16.43
539.541	17.23
539.995	13.79
540.449	14.85
540.902	14.99
541.356	16.37
541.809	13.89
542.263	14.49
542.716	13.81
543.17	14.53
543.623	15.28
544.077	14.38
544.53	14.32
544.984	16.62
545.437	14.43
545.89	14.02
546.344	13.4
546.797	15.86
547.25	14.05
547.703	15.57
548.157	14.85
548.61	14.33
549.063	15.75
549.516	15.64
549.969	15.61
550.422	14.42
550.875	15.44
551.328	15.27
551.781	14.72
552.234	14.75
552.687	13.92
553.14	15.21
553.592	15.51
554.045	16.32
554.498	16.18
554.951	16.25
555.404	15.04
555.856	14.95
556.309	15.31
556.762	13.73
557.214	16.08
557.667	14.71
558.119	14.82
558.572	14.57
559.024	16.89
559.477	15.93
559.929	14.71
560.382	15.19
560.834	16.05
561.286	14.2
561.739	16.02
562.191	14.83
562.643	16.29
563.095	15.34
563.548	15.61
564	14.35
564.452	14.64
564.904	16.01
565.356	16.54
565.808	16.4
566.26	15.86
566.712	16.64
567.164	15.79
567.616	15.11
568.068	16.24
568.52	14.75
568.972	16.94
569.424	15.35
569.876	14.33
570.327	15.76
570.779	16.16
571.231	16.2
571.682	17.48
572.134	15.93
572.586	16.08
573.037	15.31
573.489	16.36
573.941	15.82
574.392	15.3
574.844	15.5
575.295	15.96
575.746	14.8
576.198	16.14
576.649	17.63
577.101	13.92
577.552	14.68
578.003	15.86
578.454	16.59
578.906	15.41
579.357	15.8
579.808	15.86
580.259	15.7
580.71	15.52
581.161	16.35
581.612	16.5
582.064	15.35
582.515	15.17
582.965	16.26
583.416	15.49
583.867	15.43
584.318	16.12
584.769	15.29
585.22	15.27
585.671	15.42
586.122	15.84
586.572	14.72
587.023	17.1
587.474	15.7
587.924	15.73
588.375	16.43
588.826	16.52
589.276	16.3
589.727	15.97
590.177	15.77
590.628	14.87
591.078	16.24
591.529	16.09
591.979	15.2
592.429	16.11
592.88	14.73
593.33	16.23
593.78	15.86
594.231	15.65
594.681	17.35
595.131	14.68
595.581	15.07
596.031	15.65
596.481	16.8
596.932	16.02
597.382	15.61
597.832	17.98
598.282	15.85
598.732	16.87
599.182	15.89
599.632	17.28
600.081	16.46
600.531	15.91
600.981	15.16
601.431	15.66
601.881	16.05
602.33	14.92
602.78	16.39
603.23	17.32
603.679	16.33
604.129	17.73
604.579	16.2
605.028	16.41
605.478	15.95
605.927	18.17
606.377	16.01
606.826	14.99
607.276	16.15
607.725	15.84
608.175	16.31
608.624	15.33
609.073	16.12
609.522	15.5
609.972	16.85
610.421	16.58
610.87	16.96
611.319	15.46
611.768	15.09
612.218	17
612.667	16.42
613.116	15.89
613.565	16.52
614.014	16.05
614.463	16.4
614.912	16.28
615.361	16.04
615.81	15.82
616.258	16.16
616.707	16.59
617.156	17.06
617.605	16.24
618.054	15.71
618.502	15.94
618.951	16.38
619.4	16.88
619.848	16.78
620.297	16.08
620.745	16.14
621.194	16.19
621.642	15.35
622.091	16.44
622.539	17.01
622.988	15.45
623.436	16.67
623.885	15.88
624.333	17.33
624.781	15.77
625.23	16.56
625.678	17.01
626.126	16.19
626.574	16.83
627.022	16.4
627.471	16.49
627.919	16.81
628.367	16.64
628.815	15.85
629.263	16.8
629.711	16.3
630.159	17.42
630.607	16.59
631.055	16.78
631.503	16.95
631.95	16.62
632.398	16.31
632.846	16.92
633.294	16.44
633.742	16.46
634.189	16.55
634.637	16.47
635.085	17.1
635.532	16.31
635.98	15.95
636.427	16.53
636.875	16.95
637.323	16.63
637.77	16.53
638.217	16.19
638.665	16.04
639.112	17.74
639.56	17.25
640.007	17.41
640.454	17.57
640.902	17.17
641.349	17.61
641.796	17.1
642.243	16.37
642.69	16.61
643.138	17.38
643.585	16.72
644.032	17.02
644.479	16.88
644.926	16.96
645.373	17.53
645.82	17.35
646.267	16.52
646.714	16.52
647.161	17.21
647.607	17.33
648.054	17.13
648.501	17.7
648.948	16.79
649.395	16.35
649.841	17.35
650.288	17.33
650.735	15.93
651.181	17.23
651.628	16.7
652.075	17.57
652.521	17.3
652.968	17.02
653.414	18.36
653.861	17.2
654.307	17.54
654.753	16.76
655.2	17.91
655.646	17.34
656.092	16.62
656.539	17.16
656.985	17.26
657.431	17.68
657.877	16.75
658.324	17.12
658.77	18.01
659.216	17.19
659.662	16.52
660.108	16.28
660.554	16.84
661	16.61
661.446	16.57
661.892	16.91
662.338	17
662.784	17.34
663.23	17.26
663.675	16.61
664.121	17.8
664.567	16.94
665.013	17.04
665.458	17.87
665.904	17.29
666.35	17.48
666.795	16.85
667.241	17.22
667.687	17.25
668.132	16.72
668.578	16.62
669.023	16.75
669.469	16.9
669.914	16.34
670.359	16.9
670.805	16.89
671.25	17.8
671.695	16.85
672.141	16.79
672.586	17.29
673.031	17.02
673.476	17.67
673.922	17.37
674.367	16.28
674.812	16.35
675.257	16.79
675.702	17.62
676.147	15.97
676.592	16.92
677.037	17.2
677.482	17.26
677.927	17.63
678.372	17.25
678.817	16.49
679.261	17.4
679.706	17.08
680.151	17.31
680.596	16.63
681.04	16.84
681.485	17.22
681.93	17.17
682.374	17.47
682.819	16.64
683.264	17.87
683.708	16.95
684.153	17.56
684.597	16.56
685.042	16.88
685.486	17.12
685.93	16.46
686.375	17.42
686.819	17.14
687.263	16.97
687.708	16.54
688.152	16.56
688.596	17.17
689.04	17.54
689.485	18.08
689.929	17.52
690.373	17.36
690.817	17.2
691.261	17.73
691.705	17.4
692.149	17.86
692.593	17.96
693.037	17.58
693.481	17.4
693.925	17.29
694.369	17.41
694.812	17.41
695.256	17.73
695.7	17.13
696.144	17.47
696.587	17.37
697.031	17.6
697.475	17.62
697.918	18.16
698.362	17.91
698.806	17.76
699.249	17.72
699.693	18.16
700.136	17.86
700.58	17.59
701.023	17.14
701.466	18.4
701.91	17.74
702.353	17.91
702.796	17.56
703.24	17.55
703.683	17.03
704.126	18.46
704.569	17.64
705.013	17.77
705.456	17.62
705.899	17.85
706.342	17.83
706.785	17.75
707.228	17.88
707.671	18.1
708.114	17.72
708.557	17.52
709	17.53
709.443	17.11
709.886	17.79
710.328	17.71
710.771	17.3
711.214	17.35
711.657	17.74
712.099	17.36
712.542	17.18
712.985	17.57
713.427	17.59
713.87	17.91
714.313	18.01
714.755	17.25
715.198	17.77
715.64	17.14
716.083	17.57
716.525	17.07
716.967	17.33
717.41	18.48
717.852	17.59
718.295	18.11
718.737	17.87
719.179	16.94
719.621	17.66
720.063	18.49
720.506	18.31
720.948	18.15
721.39	17.4
721.832	17.61
722.274	18.24
722.716	17.59
723.158	17.02
723.6	18.67
724.042	18.7
724.484	18.11
724.926	17.82
725.368	17.02
725.81	16.96
726.251	18.25
726.693	18.18
727.135	18.41
727.577	17.92
728.018	18.12
728.46	18.07
728.902	17.45
729.343	18.12
729.785	17.45
730.226	16.99
730.668	17.93
731.109	18.36
731.551	17.69
731.992	17.05
732.434	17.66
732.875	18.1
733.316	17.64
733.758	17.62
734.199	17.39
734.64	17.44
735.081	17.65
735.523	17.44
735.964	18.3
736.405	18.15
736.846	18.82
737.287	17.45
737.728	18.52
738.169	17.59
738.61	18.16
739.051	18.25
739.492	17.35
739.933	18.19
740.374	18.24
740.815	17.34
741.256	17.77
741.696	17.98
742.137	18.13
742.578	17.49
743.019	17.78
743.459	18.01
743.9	17.32
744.341	17.36
744.781	16.88
745.222	18.42
745.662	17.93
746.103	18.36
746.543	17.92
746.984	18.92
747.424	17.5
747.865	18.5
748.305	17.98
748.745	17.98
749.186	18.22
749.626	18.03
750.066	18.61
750.506	17.75
750.947	18.01
751.387	18.02
751.827	18.34
752.267	18.31
752.707	18.52
753.147	18.46
753.587	17.11
754.027	17.44
754.467	17.36
754.907	17.88
755.347	19.01
755.787	18.09
756.227	18.35
756.667	18.23
757.107	19.09
757.546	17.6
757.986	18.02
758.426	17.49
758.865	17.6
759.305	17.98
759.745	18.35
760.184	17.92
760.624	17.77
761.063	18.38
761.503	18.88
761.943	17.9
762.382	18.18
762.821	18.61
763.261	18.58
763.7	17.76
764.14	18.27
764.579	18.38
765.018	18.5
765.457	18.02
765.897	18.31
766.336	19.32
766.775	17.96
767.214	18.2
767.653	17.39
768.092	18.49
768.531	18.02
768.97	18.43
769.409	18.24
769.848	18.54
770.287	18.65
770.726	18.29
771.165	18.51
771.604	18.4
772.043	18.67
772.482	18.01
772.92	19.04
773.359	18.7
773.798	18.53
774.237	18.16
774.675	18.4
775.114	18.56
775.553	18.29
775.991	18.57
776.43	18.37
776.868	18.79
777.307	18.52
777.745	18.28
778.184	18.34
778.622	17.81
779.06	18.4
779.499	18.63
779.937	18.26
780.375	18.42
780.814	18.33
781.252	18.46
781.69	18.38
782.128	17.82
782.566	18.3
783.004	18.35
783.443	18.53
783.881	18.6
784.319	18.8
784.757	18.69
785.195	18.65
785.633	18.74
786.071	19.16
786.508	18.59
786.946	18.53
787.384	18.65
787.822	17.99
788.26	18.85
788.697	18.17
789.135	18.62
789.573	18.43
790.011	18.8
790.448	18.52
790.886	18.72
791.323	18.85
791.761	18.5
792.198	19.01
792.636	19.16
793.073	18.69
793.511	18.97
793.948	19.11
794.386	19
794.823	18.68
795.26	18.73
795.698	18.58
796.135	19.24
796.572	18.88
797.009	18.93
797.446	19.01
797.884	19.05
798.321	18.68
798.758	18.6
799.195	18.83
799.632	18.9
800.069	18.57
800.506	18.78
800.943	18.58
801.38	19
801.817	18.5
802.254	18.99
802.69	18.94
803.127	18.57
803.564	18.91
804.001	18.43
804.438	19.01
804.874	19.14
805.311	18.31
805.748	18.84
806.184	19.51
806.621	19
807.057	18.86
807.494	19.43
807.93	19.15
808.367	19.06
808.803	19.4
809.24	18.74
809.676	18.96
810.112	18.93
810.549	18.88
810.985	19.11
811.421	19.68
811.857	19.46
812.294	19.32
812.73	18.65
813.166	18.95
813.602	19.49
814.038	19.12
814.474	19.2
814.91	19
815.346	19.05
815.782	19.25
816.218	19.24
816.654	19.49
817.09	19.54
817.526	19.06
817.962	19.52
818.398	18.99
818.833	19.46
819.269	19.2
819.705	19.84
820.141	19.16
820.576	19.22
821.012	19.56
821.447	20.03
821.883	19.33
822.319	19.38
822.754	19.52
823.19	19.26
823.625	18.92
824.061	19.31
824.496	19.43
824.931	19.33
825.367	19.11
825.802	19.33
826.237	19.57
826.673	19.22
827.108	20.13
827.543	19.58
827.978	19.36
828.413	18.93
828.849	19.5
829.284	19.17
829.719	19.65
830.154	19.73
830.589	18.88
831.024	19.67
831.459	19.54
831.894	19.18
832.329	19.92
832.763	19.47
833.198	19.8
833.633	19.01
834.068	19.54
834.503	20.01
834.937	19.71
835.372	18.9
835.807	19.82
836.241	19.57
836.676	19.75
837.111	20.15
837.545	19.88
837.98	19.66
838.414	19.2
838.849	19.8
839.283	19.89
839.717	19.61
840.152	19.94
840.586	19.53
841.021	19.55
841.455	19.76
841.889	19.82
842.323	19.29
842.758	19.78
843.192	20.01
843.626	19.86
844.06	19.42
844.494	19.88
844.928	19.83
845.362	19.7
845.796	19.53
846.23	20.08
846.664	19.95
847.098	19.96
847.532	19.42
847.966	19.85
848.4	20.16
848.834	19.98
849.267	20.21
849.701	19.42
850.135	20.06
850.569	20.04
851.002	19.97
851.436	20.04
851.87	19.99
852.303	20.13
852.737	19.85
853.17	20.36
853.604	19.83
854.037	20.56
854.471	20.06
854.904	20.16
855.337	19.98
855.771	20.48
856.204	19.44
856.637	20.4
857.071	20.75
857.504	20.2
857.937	20.46
858.37	19.98
858.804	20.4
859.237	19.86
859.67	20.55
860.103	20.24
860.536	20.44
860.969	20.18
861.402	19.75
861.835	20.6
862.268	20.45
862.701	20.44
863.134	20.22
863.566	19.86
863.999	20.22
864.432	20.39
864.865	20.54
865.298	20.37
865.73	20.5
866.163	20.11
866.596	20.54
867.028	20.22
867.461	20.52
867.893	20.62
868.326	20.73
868.758	20.17
869.191	20.75
869.623	20.55
870.056	20.11
870.488	20.69
870.92	20.8
871.353	20.52
871.785	20.46
872.217	20.41
872.65	20.04
873.082	20.42
873.514	20.49
873.946	21.01
874.378	21.14
874.81	20.15
875.243	20.71
875.675	20.27
876.107	20.77
876.539	20.38
876.971	20.35
877.403	20.63
877.834	21
878.266	20.61
878.698	21.01
879.13	21.23
879.562	20.99
879.994	20.42
880.425	20.69
880.857	21.51
881.289	20.49
881.72	20.55
882.152	20.9
882.584	20.78
883.015	20.66
883.447	20.81
883.878	21.1
884.31	21.24
884.741	20.77
885.173	21.4
885.604	21.31
886.035	21.13
886.467	20.61
886.898	21.2
887.329	21.4
887.76	21.25
888.192	20.92
888.623	21.11
889.054	20.66
889.485	21.05
889.916	21.35
890.347	21.02
890.778	20.83
891.209	20.73
891.64	20.57
892.071	21.49
892.502	21.25
892.933	20.95
893.364	21.29
893.795	21.2
894.226	21.56
894.657	21.6
895.087	21.67
895.518	21.03
895.949	21.6
896.38	21.26
896.81	21.01
897.241	21.5
897.671	20.93
898.102	21.19
898.533	21.1
898.963	21.33
899.394	21.58
899.824	21.59
900.254	21.31
900.685	21.43
901.115	21.53
901.546	21.21
901.976	21.48
902.406	21.41
902.836	21.44
903.267	21.71
903.697	21.22
904.127	21.52
904.557	21.68
904.987	21.36
905.417	20.75
905.847	21.21
906.277	21.17
906.707	21.43
907.137	22.1
907.567	21.73
907.997	21.35
908.427	21.04
908.857	21.66
909.287	21.44
909.717	21.58
910.146	21.63
910.576	21.62
911.006	21.62
911.436	21.85
911.865	21.54
912.295	21.83
912.724	21.86
913.154	21.71
913.584	21.65
914.013	21.6
914.443	21.69
914.872	21.54
915.302	21.54
915.731	21.78
916.16	22
916.59	21.37
917.019	22.04
917.448	21.99
917.878	21.96
918.307	21.73
918.736	21.67
919.165	21.61
919.594	22.04
920.023	21.68
920.452	21.58
920.882	21.81
921.311	21.8
921.74	22.11
922.169	21.99
922.597	21.88
923.026	22.27
923.455	21.83
923.884	22.09
924.313	22.03
924.742	21.74
925.171	22.21
925.599	22.51
926.028	22.06
926.457	22.17
926.885	22.03
927.314	22.45
927.743	22.49
928.171	22.2
928.6	22.44
929.028	22.28
929.457	22.44
929.885	22.21
930.314	22.5
930.742	22.23
931.17	22.67
931.599	22.29
932.027	22.52
932.455	21.89
932.884	22.33
933.312	22.16
933.74	22.6
934.168	22.71
934.596	21.96
935.025	22.85
935.453	22.58
935.881	22.67
936.309	22.43
936.737	22.45
937.165	22.26
937.593	22.23
938.021	22.37
938.449	22.21
938.876	22.38
939.304	22.4
939.732	22.43
940.16	22.54
940.588	22.07
941.015	21.9
941.443	22.62
941.871	22.7
942.298	22.34
942.726	22.95
943.154	22.51
943.581	23.03
944.009	22.71
944.436	22.45
944.864	23.02
945.291	22.53
945.718	22.72
946.146	22.67
946.573	22.46
947.001	22.54
947.428	22.31
947.855	22.36
948.282	22.87
948.71	22.87
949.137	23.05
949.564	22.95
949.991	22.96
950.418	23.07
950.845	23.18
951.272	22.81
951.699	23.06
952.126	23.1
952.553	22.8
952.98	23.14
953.407	23.08
953.834	22.84
954.261	22.58
954.688	22.59
955.114	23.24
955.541	23.62
955.968	23.34
956.395	23.15
956.821	22.97
957.248	22.88
957.674	22.98
958.101	23.01
958.528	22.94
958.954	23.01
959.381	23.42
959.807	22.83
960.234	23.33
960.66	23.56
961.086	23.11
961.513	23.37
961.939	23.41
962.365	23.13
962.792	23.11
963.218	23.44
963.644	23.35
964.07	23.11
964.496	23.18
964.923	23.61
965.349	23.18
965.775	23.32
966.201	23.31
966.627	23.33
967.053	23.27
967.479	23.8
967.905	23.08
968.331	22.93
968.756	22.77
969.182	23.47
969.608	23.33
970.034	23.46
970.46	22.95
970.885	23.66
971.311	23.44
971.737	23.32
972.162	23.51
972.588	23.32
973.014	23.14
973.439	23.66
973.865	23.47
974.29	23.55
974.716	23.11
975.141	23.51
975.567	23.48
975.992	23.82
976.417	23.47
976.843	23.62
977.268	23.48
977.693	23.78
978.119	23.59
978.544	24.12
978.969	23.92
979.394	23.87
979.819	23.93
980.244	23.62
980.669	24.07
981.095	24.03
981.52	23.97
981.945	23.85
982.369	23.93
982.794	23.54
983.219	24.09
983.644	23.82
984.069	23.75
984.494	23.89
984.919	24
985.343	24.03
985.768	24.02
986.193	23.46
986.618	23.87
987.042	23.75
987.467	24.09
987.891	24.18
988.316	24.23
988.741	24.24
989.165	24.07
989.59	24.18
990.014	24.09
990.438	24.02
990.863	24.15
991.287	24.29
991.712	24.3
992.136	24.31
992.56	24.12
992.984	24.66
993.409	24.41
993.833	24.27
994.257	24.3
994.681	24.16
995.105	24.26
995.529	24.23
995.953	24.3
996.377	24.38
996.801	24.38
997.225	24.31
997.649	24.7
998.073	24.58
998.497	24.12
998.921	24.67
999.345	24.52
999.769	24.58
1000.192	24.34
1000.616	24.44
1001.04	24.72
1001.464	24.63
1001.887	24.78
1002.311	24.54
1002.734	24.57
1003.158	24.37
1003.582	24.56
1004.005	24.71
1004.429	24.84
1004.852	24.8
1005.275	24.8
1005.699	24.85
1006.122	24.16
1006.546	24.9
1006.969	24.55
1007.392	24.55
1007.815	24.57
1008.239	25.12
1008.662	25.16
1009.085	24.32
1009.508	24.96
1009.931	24.83
1010.354	25.07
1010.778	25.14
1011.201	25.15
1011.624	24.67
1012.047	25
1012.469	24.8
1012.892	25.09
1013.315	25.02
1013.738	25.44
1014.161	24.96
1014.584	25.64
1015.007	25.09
1015.429	25.42
1015.852	24.78
1016.275	25.3
1016.697	24.98
1017.12	25.08
1017.543	25.04
1017.965	25.35
1018.388	25.25
1018.81	25.28
1019.233	25.55
1019.655	25.52
1020.078	25.02
1020.5	25.05
1020.922	25.37
1021.345	25.26
1021.767	25.82
1022.189	24.79
1022.612	25.13
1023.034	25.54
1023.456	25.68
1023.878	25.47
1024.301	25.99
1024.723	25.6
1025.145	25.26
1025.567	25.63
1025.989	25.39
1026.411	25.68
1026.833	25.14
1027.255	25.55
1027.677	25.71
1028.099	25.41
1028.52	25.33
1028.942	25.42
1029.364	25.57
1029.786	25.86
1030.208	25.55
1030.629	26.1
1031.051	25.78
1031.473	25.49
1031.894	25.32
1032.316	25.45
1032.738	25.99
1033.159	25.45
1033.581	25.25
1034.002	25.32
1034.424	25.8
1034.845	25.62
1035.267	26.38
1035.688	26.01
1036.109	26.33
1036.531	25.79
1036.952	26.17
1037.373	25.95
1037.794	25.92
1038.216	25.8
1038.637	25.85
1039.058	25.84
1039.479	25.81
1039.9	26.29
1040.321	26.12
1040.742	25.65
1041.163	26.43
1041.584	25.66
1042.005	25.74
1042.426	25.83
1042.847	25.96
1043.268	26.14
1043.689	25.88
1044.11	25.86
1044.53	26.36
1044.951	26.42
1045.372	26.44
1045.793	26.37
1046.213	26.14
1046.634	26.16
1047.055	26.32
1047.475	26.71
1047.896	25.72
1048.316	26.72
1048.737	27.2
1049.157	26.18
1049.578	26.9
1049.998	26.62
1050.419	26.6
1050.839	26.96
1051.259	26.06
1051.68	26.32
1052.1	26.23
1052.52	26.06
1052.94	27.04
1053.361	26.43
1053.781	26.55
1054.201	26.69
1054.621	26.82
1055.041	26.21
1055.461	27.18
1055.881	27.32
1056.301	26.7
1056.721	27.03
1057.141	26.64
1057.561	27.26
1057.981	26.62
1058.401	26.64
1058.82	27.14
1059.24	25.88
1059.66	27.15
1060.08	26.72
1060.499	27.15
1060.919	26.98
1061.339	26.41
1061.758	26.41
1062.178	26.23
1062.598	27.02
1063.017	26.81
1063.437	27.02
1063.856	27.13
1064.276	26.63
1064.695	27.5
1065.114	26.42
1065.534	26.81
1065.953	26.58
1066.372	26.25
1066.792	27.16
1067.211	27.47
1067.63	26.98
1068.049	27.93
1068.469	26.71
1068.888	26.32
1069.307	27.26
1069.726	27.4
1070.145	28.1
1070.564	26.36
1070.983	27.47
1071.402	27.34
1071.821	26.65
1072.24	26.88
1072.659	26.32
1073.078	25.97
1073.496	27.69
1073.915	28.45
1074.334	26.7
1074.753	26.5
1075.171	26.4
1075.59	26.88
1076.009	27.11
1076.427	28.1
1076.846	26.51
1077.265	27.58
1077.683	28.04
1078.102	27.22
1078.52	26.75
1078.939	26.82
1079.357	26.12
1079.776	26.42
1080.194	27.63
1080.612	27.77
1081.031	27.12
1081.449	26.19
1081.867	26.71
1082.285	28.04
1082.704	27.17
1083.122	27.14
1083.54	27.83
1083.958	26.91
1084.376	26.83
1084.794	25.93
1085.212	26.42
1085.63	28.23
1086.048	27.09
1086.466	27.2
1086.884	26.28
1087.302	27.27
1087.72	27.17
1088.138	27.88
1088.555	27.72
1088.973	27.8
1089.391	26.6
1089.809	27.41
1090.226	27.87
1090.644	28.12
1091.062	27.38
1091.479	26.21
1091.897	26.09
1092.314	28.23
1092.732	27.73
1093.15	26.97
1093.567	27.44
1093.984	26.8
1094.402	25.77
1094.819	26.76
1095.237	27.59
1095.654	27.75
1096.071	27.18
1096.488	26.27
1096.906	27.07
1097.323	28.77
1097.74	27.01
1098.157	28.01
1098.574	28.7
1098.991	27.47
1099.409	26.67
1099.826	27.71
1100.243	25.46
1100.66	28.51
1101.077	28.39
1101.494	26.19
1101.91	27.72
1102.327	27.3
1102.744	25.26
1103.161	28.7
1103.578	27.53
1103.994	26.01
1104.411	27.74
1104.828	27.92
1105.245	27.4
1105.661	27.17
1106.078	26.23
1106.494	26.91
1106.911	27.49
1107.328	25.13
1107.744	25.53
1108.161	24.96
1108.577	24.54
1108.993	27.4
1109.41	28.5
1109.826	27.43
1110.242	26.16
1110.659	28.59
1111.075	25.53
1111.491	26.54
1111.908	26.03
1112.324	27.48
1112.74	34.05
1113.156	26.74
1113.572	26.62
1113.988	24.35
1114.404	25.72
1114.82	23.4
1115.236	26.6
1115.652	24.19
1116.068	23.13
1116.484	22.69
1116.9	31.42
1117.316	27.99
1117.732	12.9
1118.147	42.31
1118.563	100
1118.979	100
