Data from JCR0029_White2_Reflection_00001.txt Node
Date: Fri Jul 31 12:56:19 ACST 2020
User: Stacey Dix
Spectrometer: MAYP113282
Scans to average: 1
Trigger mode: 0
Integration Time (sec): 1.000000E-1
Electric dark correction enabled: true
Boxcar width: 0
XAxis mode: Wavelengths
Number of Pixels in Spectrum: 2068
>>>>>Begin Spectral Data<<<<<
198.791	154.55
199.266	-87.5
199.74	70
200.215	-50
200.69	55.84
201.164	53.28
201.639	50.86
202.114	29.35
202.588	42.35
203.063	46.22
203.537	39.75
204.012	21.05
204.486	30.31
204.961	52.14
205.435	11.82
205.909	33.11
206.384	25.75
206.858	27.21
207.332	35.71
207.807	30.39
208.281	48.31
208.755	25.84
209.229	27.81
209.703	35.94
210.177	47.31
210.651	36.15
211.126	20.77
211.6	23.23
212.074	31.32
212.548	29.89
213.021	19.94
213.495	27.37
213.969	30.39
214.443	41.24
214.917	36.34
215.391	33.16
215.864	16.18
216.338	16.26
216.812	30.77
217.286	16.96
217.759	13.2
218.233	25.39
218.706	26.53
219.18	15.15
219.654	19.13
220.127	21.28
220.6	10.09
221.074	23.76
221.547	12.34
222.021	29.79
222.494	17.07
222.967	20.16
223.441	21.25
223.914	16.55
224.387	10.24
224.86	15.52
225.334	26.27
225.807	15.74
226.28	18.57
226.753	16.01
227.226	16.94
227.699	12.05
228.172	14.56
228.645	14.99
229.118	10.47
229.591	15.09
230.064	11.2
230.537	12.36
231.01	12.41
231.482	10.9
231.955	4.62
232.428	10.68
232.901	9.91
233.373	10.13
233.846	10.83
234.319	12.97
234.791	8.82
235.264	10.6
235.736	9.06
236.209	9.06
236.681	9.27
237.154	9.78
237.626	10.58
238.099	10.15
238.571	8.81
239.044	10.79
239.516	10.09
239.988	8.2
240.46	9.6
240.933	7.97
241.405	9.88
241.877	9.69
242.349	9.95
242.821	9.11
243.293	10.33
243.765	9.34
244.237	9.56
244.71	8.97
245.181	8.62
245.653	9.06
246.125	9.37
246.597	9.82
247.069	7.87
247.541	8.4
248.013	9.13
248.485	8.74
248.956	8.92
249.428	8.29
249.9	8.1
250.371	8.73
250.843	9.1
251.315	8.33
251.786	7.05
252.258	7.37
252.729	7.95
253.201	8.22
253.672	7.99
254.144	8.46
254.615	7.27
255.086	7.84
255.558	7.46
256.029	8.27
256.5	8.27
256.972	7.63
257.443	7.92
257.914	7.77
258.385	7.81
258.856	7.36
259.327	7.63
259.799	7.5
260.27	7.57
260.741	6.73
261.212	6.83
261.683	8.14
262.154	7.31
262.624	6.69
263.095	7.58
263.566	6.34
264.037	7.38
264.508	7.07
264.979	7.19
265.449	7.3
265.92	7.45
266.391	7.13
266.861	7.19
267.332	6.13
267.803	7.49
268.273	7.63
268.744	7.61
269.214	7.35
269.685	7.13
270.155	7.64
270.626	8.11
271.096	6.54
271.566	8.02
272.037	7.89
272.507	8.56
272.977	7.2
273.448	7.76
273.918	7.56
274.388	6.91
274.858	6.69
275.328	7.84
275.798	7.35
276.268	6.86
276.738	7.78
277.208	8.25
277.678	7.64
278.148	7.14
278.618	8.42
279.088	8.21
279.558	7.45
280.028	6.38
280.498	6.94
280.968	6.58
281.437	6.76
281.907	7.65
282.377	7.37
282.847	7.21
283.316	6.28
283.786	7.23
284.255	7.24
284.725	6.62
285.194	6.83
285.664	6.59
286.133	6.66
286.603	6.63
287.072	6.89
287.542	6.79
288.011	5.93
288.48	6.75
288.95	6.88
289.419	6.99
289.888	6.37
290.357	7.49
290.827	6.7
291.296	6.56
291.765	5.64
292.234	6.89
292.703	6.05
293.172	7.03
293.641	6.56
294.11	7.1
294.579	6.71
295.048	7.27
295.517	7.46
295.986	6.72
296.455	6.73
296.923	7.15
297.392	6.63
297.861	7.02
298.33	7.3
298.798	6.96
299.267	7.5
299.736	6.15
300.204	6.93
300.673	7.18
301.141	6.56
301.61	6.77
302.079	6.7
302.547	7.19
303.015	6.63
303.484	6.36
303.952	7.26
304.421	6.55
304.889	6.65
305.357	6.44
305.825	7.17
306.294	6.89
306.762	6.24
307.23	6.72
307.698	6.51
308.166	6.72
308.634	6.4
309.103	7.31
309.571	6.86
310.039	7.66
310.507	6.74
310.975	7.52
311.442	6.96
311.91	6.8
312.378	7.74
312.846	6.67
313.314	7.01
313.782	6.52
314.249	7.06
314.717	7.38
315.185	6.53
315.652	6.88
316.12	6.42
316.588	6.22
317.055	7.6
317.523	7.16
317.99	7.89
318.458	6.58
318.925	7.24
319.393	7.02
319.86	6.93
320.328	7.4
320.795	7.14
321.262	8.12
321.73	7.89
322.197	7.66
322.664	8.21
323.131	8.97
323.598	9.14
324.066	9.57
324.533	9.63
325	10.57
325.467	11.28
325.934	12.45
326.401	11.84
326.868	12.6
327.335	12.65
327.802	13.62
328.269	13.64
328.735	15.58
329.202	16.22
329.669	16.41
330.136	18.31
330.603	18.47
331.069	19.21
331.536	19.05
332.003	19.58
332.469	19.4
332.936	20.4
333.402	21.6
333.869	20.71
334.336	22.17
334.802	20.97
335.268	21.54
335.735	21.48
336.201	23.15
336.668	22
337.134	21.96
337.6	21.55
338.067	22.02
338.533	22.65
338.999	21.24
339.465	23.21
339.931	22.35
340.398	23.49
340.864	23.23
341.33	23.05
341.796	23.79
342.262	22.86
342.728	23.33
343.194	22.09
343.66	21.77
344.126	23.47
344.592	21.35
345.057	22.74
345.523	21.18
345.989	22.45
346.455	22.38
346.921	23.85
347.386	22.64
347.852	22.66
348.318	20.84
348.783	22.73
349.249	21.56
349.714	22.68
350.18	21.07
350.645	23.21
351.111	21.19
351.576	22.34
352.042	22.9
352.507	21.77
352.973	20.84
353.438	21.64
353.903	22.53
354.369	21.04
354.834	21.71
355.299	22.39
355.764	21.46
356.229	20.44
356.695	22.23
357.16	22.22
357.625	20.77
358.09	21.2
358.555	22.3
359.02	21.41
359.485	20.52
359.95	21.33
360.415	20.8
360.879	22.11
361.344	22.08
361.809	22.07
362.274	20.97
362.739	21.26
363.203	22.65
363.668	22.12
364.133	21.62
364.597	21.34
365.062	22.8
365.527	22.41
365.991	21.33
366.456	21.1
366.92	21.93
367.385	22.61
367.849	22.59
368.314	20.54
368.778	22.02
369.242	22.39
369.707	22.48
370.171	22.78
370.635	22.33
371.1	21.87
371.564	23.79
372.028	23.02
372.492	22.08
372.956	21.48
373.42	22.34
373.884	21.55
374.348	22.4
374.812	21.47
375.276	22.21
375.74	20.61
376.204	22.22
376.668	22.52
377.132	23.94
377.596	22.48
378.06	23.21
378.524	21.9
378.987	22.95
379.451	24.19
379.915	23.27
380.378	24.26
380.842	22.37
381.306	23.78
381.769	23.68
382.233	23.9
382.696	22.49
383.16	23.74
383.623	22.15
384.087	23.17
384.55	23.11
385.014	23.55
385.477	23.49
385.94	23.65
386.404	23.89
386.867	24.75
387.33	23.43
387.793	24.22
388.256	22.53
388.72	23.94
389.183	23.23
389.646	24
390.109	24.25
390.572	25.34
391.035	23.44
391.498	24.19
391.961	23.99
392.424	22.63
392.887	23.78
393.35	23.59
393.812	24.76
394.275	23.29
394.738	25.53
395.201	23.28
395.664	23.2
396.126	25.85
396.589	23.18
397.052	24.36
397.514	23.63
397.977	23.13
398.439	23.46
398.902	25.07
399.364	23.86
399.827	23.93
400.289	23.59
400.752	24.31
401.214	23.94
401.676	23.2
402.139	23.8
402.601	23.27
403.063	22.89
403.525	24.6
403.988	24.56
404.45	23.33
404.912	23.13
405.374	24.83
405.836	22.15
406.298	24.39
406.76	21.09
407.222	25.02
407.684	23.66
408.146	23.3
408.608	24.13
409.07	23.29
409.532	23.95
409.994	23.16
410.456	23.71
410.917	23.47
411.379	24.59
411.841	23.81
412.303	22.74
412.764	22.9
413.226	23.21
413.687	23.61
414.149	23.99
414.611	24.35
415.072	24
415.534	23.79
415.995	23.44
416.457	22.64
416.918	24.22
417.379	24
417.841	23.93
418.302	23.58
418.763	24.13
419.225	23.68
419.686	24.93
420.147	24.65
420.608	24.88
421.069	25.23
421.53	24.27
421.991	24.57
422.453	24.73
422.914	25.71
423.375	24
423.836	24.18
424.297	25.6
424.757	24.83
425.218	24.74
425.679	26.54
426.14	25.14
426.601	24.53
427.062	24.32
427.522	23.39
427.983	24.93
428.444	26.65
428.904	25.23
429.365	26.49
429.826	24.34
430.286	26.7
430.747	25
431.207	26.52
431.668	27.64
432.128	26.28
432.589	25.37
433.049	25.09
433.509	23.89
433.97	26.27
434.43	25.3
434.89	26.25
435.351	26.77
435.811	27.96
436.271	24.76
436.731	25.64
437.191	25.9
437.651	25.69
438.112	26.12
438.572	26.02
439.032	25.21
439.492	26.14
439.952	27.39
440.412	25.9
440.871	26.03
441.331	26.71
441.791	27.6
442.251	25.92
442.711	23.05
443.171	26.48
443.63	24.47
444.09	26.75
444.55	25
445.009	28.37
445.469	25.75
445.929	26.83
446.388	26.27
446.848	25.7
447.307	25.1
447.767	26.43
448.226	25.77
448.686	26.8
449.145	25.41
449.604	25.72
450.064	26.47
450.523	27.52
450.982	25.58
451.442	26.25
451.901	27.67
452.36	25.03
452.819	26.05
453.278	25.51
453.737	26.66
454.197	26.98
454.656	25.56
455.115	28.05
455.574	26.52
456.033	28.35
456.492	26.38
456.95	23.77
457.409	25.58
457.868	25.24
458.327	26.37
458.786	26.02
459.245	28.54
459.703	26.77
460.162	26.94
460.621	24.95
461.079	25.97
461.538	24.71
461.997	26.76
462.455	26.44
462.914	28.31
463.372	25.89
463.831	25.24
464.289	26.49
464.748	26.39
465.206	27.76
465.664	24.56
466.123	24.43
466.581	28
467.039	28.09
467.497	26.11
467.956	25.76
468.414	26.72
468.872	26.26
469.33	25.07
469.788	27.26
470.246	27.23
470.704	26.48
471.162	24.54
471.62	27.99
472.078	24.25
472.536	26.75
472.994	27.26
473.452	25.17
473.91	27.78
474.368	26.58
474.826	28.13
475.283	26.71
475.741	26.26
476.199	27.9
476.656	26.87
477.114	27.32
477.572	24.42
478.029	27.82
478.487	26.66
478.944	23.78
479.402	27.6
479.859	26.3
480.317	28.08
480.774	28.27
481.232	26.52
481.689	27.37
482.146	26.74
482.604	26.09
483.061	26.69
483.518	25.18
483.975	27.73
484.433	25.2
484.89	27.85
485.347	25.59
485.804	26.65
486.261	28.38
486.718	28.72
487.175	27.31
487.632	26.1
488.089	25.86
488.546	27.86
489.003	27.41
489.46	26.79
489.917	26.46
490.373	26.14
490.83	25.68
491.287	26.14
491.744	24.82
492.2	26.41
492.657	26.46
493.114	26.4
493.57	26.29
494.027	27.4
494.484	28.27
494.94	25.36
495.397	28.93
495.853	29.05
496.31	24.42
496.766	26.2
497.222	26.79
497.679	25.89
498.135	28.21
498.591	25.78
499.048	24.81
499.504	27.13
499.96	26.2
500.416	26.76
500.872	24.7
501.329	27.85
501.785	26.86
502.241	25.21
502.697	30.27
503.153	28.83
503.609	25.09
504.065	26.4
504.521	26.13
504.977	26.69
505.432	26.66
505.888	25.09
506.344	27.04
506.8	26.99
507.256	25.8
507.711	25.93
508.167	27.89
508.623	26.14
509.078	27.51
509.534	25.01
509.99	25.8
510.445	26.07
510.901	26.04
511.356	25.66
511.812	26.06
512.267	25.83
512.722	26.29
513.178	26.42
513.633	26.34
514.089	25.9
514.544	27.46
514.999	25.83
515.454	25.98
515.91	27.1
516.365	26.26
516.82	24.72
517.275	26.51
517.73	26.34
518.185	25.93
518.64	26.26
519.095	26.51
519.55	24.45
520.005	28.05
520.46	25.19
520.915	26.3
521.37	27.22
521.825	26.44
522.28	25.77
522.734	27.52
523.189	26.2
523.644	23.81
524.099	25.58
524.553	23.92
525.008	26.57
525.462	26.92
525.917	27.5
526.372	25.52
526.826	25.84
527.281	25.81
527.735	25.35
528.19	27.01
528.644	27.42
529.098	24.92
529.553	24
530.007	25.24
530.461	24.26
530.916	25.1
531.37	26.41
531.824	25.79
532.278	25.12
532.732	25.83
533.186	27.17
533.641	24.75
534.095	27.05
534.549	25.23
535.003	26.66
535.457	26.04
535.911	27.71
536.365	27
536.818	26.47
537.272	25.86
537.726	25.83
538.18	27.37
538.634	25.41
539.087	27.83
539.541	25.6
539.995	26.13
540.449	25.53
540.902	25.64
541.356	26.96
541.809	26.65
542.263	25.15
542.716	27.14
543.17	24.44
543.623	25.93
544.077	26.45
544.53	26.08
544.984	25.58
545.437	26.73
545.89	26.99
546.344	26.14
546.797	27.64
547.25	26.49
547.703	24.27
548.157	25.82
548.61	27.88
549.063	26.61
549.516	25.61
549.969	27.49
550.422	25.56
550.875	25.45
551.328	26.49
551.781	26.95
552.234	26.19
552.687	25.45
553.14	27.22
553.592	24.21
554.045	26.59
554.498	26
554.951	24.9
555.404	25.77
555.856	25.41
556.309	25.28
556.762	26.29
557.214	25.25
557.667	25.79
558.119	26.72
558.572	23.86
559.024	26.62
559.477	27.65
559.929	25.75
560.382	27.63
560.834	25.56
561.286	25.72
561.739	26.2
562.191	26.65
562.643	25.67
563.095	26.5
563.548	24.28
564	26.19
564.452	24.73
564.904	26.04
565.356	25.26
565.808	26.17
566.26	26.44
566.712	26.3
567.164	26.86
567.616	24.81
568.068	26.78
568.52	26.39
568.972	24.62
569.424	24.81
569.876	26.04
570.327	25.99
570.779	25.85
571.231	25.87
571.682	24.82
572.134	25.47
572.586	25.79
573.037	25.02
573.489	25.15
573.941	26.39
574.392	25.46
574.844	26.03
575.295	25.11
575.746	24.9
576.198	26.96
576.649	26.15
577.101	25.73
577.552	26.79
578.003	26.21
578.454	25.44
578.906	23.93
579.357	26.81
579.808	25.47
580.259	25.68
580.71	26.44
581.161	26.05
581.612	27.23
582.064	25.46
582.515	25.16
582.965	26.09
583.416	25.81
583.867	25.51
584.318	25.67
584.769	25.31
585.22	24.98
585.671	25.72
586.122	26.04
586.572	25.82
587.023	25.82
587.474	26.06
587.924	26.55
588.375	25.46
588.826	24.65
589.276	25.89
589.727	26
590.177	24.65
590.628	25.5
591.078	25.68
591.529	26.45
591.979	24.98
592.429	25.78
592.88	27.58
593.33	26.5
593.78	24.44
594.231	24.55
594.681	26.03
595.131	25.59
595.581	27.15
596.031	25.78
596.481	25.26
596.932	25.85
597.382	26.07
597.832	26.27
598.282	25.9
598.732	26.34
599.182	25.96
599.632	25.45
600.081	24.35
600.531	26.72
600.981	25.1
601.431	24.7
601.881	27.1
602.33	26.44
602.78	25.01
603.23	25.82
603.679	25.68
604.129	26.39
604.579	25.77
605.028	25.62
605.478	25.37
605.927	25.49
606.377	26.04
606.826	25.96
607.276	25.13
607.725	26.53
608.175	25.78
608.624	25.94
609.073	26.78
609.522	25.68
609.972	24.56
610.421	26.54
610.87	25.75
611.319	25.74
611.768	27.51
612.218	26.06
612.667	25.78
613.116	26.32
613.565	26.43
614.014	25.09
614.463	25.12
614.912	25.91
615.361	26.01
615.81	25.55
616.258	25.17
616.707	26.22
617.156	26.76
617.605	25.15
618.054	26.56
618.502	25.62
618.951	25.6
619.4	25.18
619.848	26.57
620.297	25.24
620.745	26.62
621.194	25.43
621.642	25.53
622.091	26.5
622.539	26.21
622.988	24.97
623.436	25.69
623.885	25.46
624.333	25.26
624.781	26.03
625.23	26.18
625.678	26.13
626.126	25.88
626.574	25.38
627.022	25.09
627.471	25.79
627.919	24.98
628.367	25.54
628.815	25.44
629.263	26.52
629.711	26
630.159	24.82
630.607	26.05
631.055	26.17
631.503	25.61
631.95	25.88
632.398	25.91
632.846	25.94
633.294	25.2
633.742	25.92
634.189	25.67
634.637	25.59
635.085	24.94
635.532	25.41
635.98	25.43
636.427	25.25
636.875	25.06
637.323	25.49
637.77	24.89
638.217	25.96
638.665	25.93
639.112	25.66
639.56	24.99
640.007	25.63
640.454	26.02
640.902	25.11
641.349	25.58
641.796	25.63
642.243	25.99
642.69	25.26
643.138	25.56
643.585	25.89
644.032	25.29
644.479	25.76
644.926	25.94
645.373	24.62
645.82	25.44
646.267	24.95
646.714	25.86
647.161	25.1
647.607	24.97
648.054	27.15
648.501	25.54
648.948	25.78
649.395	25.5
649.841	26.21
650.288	25.43
650.735	26.03
651.181	26.02
651.628	24.97
652.075	25.3
652.521	25.56
652.968	26.31
653.414	25.8
653.861	25.39
654.307	25.51
654.753	25.36
655.2	24.98
655.646	24.63
656.092	25.1
656.539	25
656.985	24.99
657.431	26.36
657.877	24.81
658.324	25.32
658.77	25.41
659.216	25.1
659.662	25.6
660.108	25.84
660.554	25.23
661	24.73
661.446	25.14
661.892	25.31
662.338	25.82
662.784	26.22
663.23	25.27
663.675	25.32
664.121	25.96
664.567	25.09
665.013	24.99
665.458	26.12
665.904	25.58
666.35	24.76
666.795	25.5
667.241	25.47
667.687	25.38
668.132	24.94
668.578	25.35
669.023	25.97
669.469	25.08
669.914	25.96
670.359	26.08
670.805	25.33
671.25	24.83
671.695	25.1
672.141	25.44
672.586	25.57
673.031	25.9
673.476	24.71
673.922	25.17
674.367	25.96
674.812	25.25
675.257	25.2
675.702	25.79
676.147	25.27
676.592	25.09
677.037	24.99
677.482	25.48
677.927	24.97
678.372	25.47
678.817	24.86
679.261	25.9
679.706	26.08
680.151	25
680.596	25.21
681.04	25.25
681.485	25.42
681.93	25.21
682.374	24.74
682.819	25.92
683.264	25.47
683.708	26.14
684.153	25.64
684.597	25.59
685.042	25.41
685.486	26.8
685.93	24.94
686.375	25.67
686.819	25.49
687.263	25.87
687.708	25.24
688.152	24.78
688.596	26.46
689.04	25.46
689.485	25.65
689.929	25.1
690.373	25.61
690.817	25.34
691.261	25
691.705	25.57
692.149	25.74
692.593	25.06
693.037	25.72
693.481	25.15
693.925	25.64
694.369	25.51
694.812	24.83
695.256	25.41
695.7	25.49
696.144	25.57
696.587	25.55
697.031	24.87
697.475	24.75
697.918	25.52
698.362	24.81
698.806	25.09
699.249	25.84
699.693	24.83
700.136	25.09
700.58	25.19
701.023	25.33
701.466	25.48
701.91	25.07
702.353	25.52
702.796	25.54
703.24	25.02
703.683	25.25
704.126	25.52
704.569	25.73
705.013	25.77
705.456	25.09
705.899	25.02
706.342	25.4
706.785	25.35
707.228	25.77
707.671	25.69
708.114	25.15
708.557	24.81
709	25.78
709.443	25.08
709.886	25.39
710.328	25.27
710.771	24.48
711.214	25.59
711.657	25.46
712.099	25.15
712.542	26.01
712.985	24.91
713.427	25.91
713.87	25.59
714.313	25.75
714.755	25.01
715.198	25.26
715.64	25.47
716.083	25.26
716.525	25.91
716.967	24.71
717.41	25.41
717.852	25.35
718.295	25.78
718.737	25.23
719.179	25.78
719.621	25.74
720.063	25.35
720.506	25.31
720.948	26.08
721.39	25.12
721.832	24.66
722.274	25.65
722.716	25.63
723.158	24.93
723.6	24.89
724.042	25.44
724.484	24.75
724.926	25.83
725.368	25.09
725.81	25.85
726.251	25.13
726.693	25.47
727.135	25.25
727.577	25.05
728.018	24.91
728.46	25.52
728.902	25.43
729.343	25.5
729.785	25.15
730.226	24.78
730.668	25.18
731.109	25.29
731.551	24.94
731.992	25.35
732.434	25.78
732.875	26.01
733.316	25.89
733.758	25.73
734.199	25.16
734.64	24.6
735.081	25.22
735.523	25.58
735.964	25.87
736.405	25.88
736.846	25.23
737.287	25.17
737.728	24.81
738.169	25.27
738.61	25.78
739.051	24.91
739.492	26.01
739.933	25.86
740.374	25.13
740.815	25.79
741.256	25.6
741.696	25.6
742.137	24.94
742.578	25.96
743.019	24.87
743.459	25.27
743.9	25.26
744.341	24.95
744.781	25.41
745.222	24.81
745.662	25.28
746.103	25.72
746.543	25.15
746.984	25.35
747.424	25.25
747.865	25.38
748.305	25.52
748.745	25.15
749.186	25.65
749.626	26
750.066	25.28
750.506	25.56
750.947	25.87
751.387	25.05
751.827	25.84
752.267	25.24
752.707	25.88
753.147	25.71
753.587	25.08
754.027	25.28
754.467	25.38
754.907	25.37
755.347	25.77
755.787	25.52
756.227	25.37
756.667	24.9
757.107	25.33
757.546	25.48
757.986	24.79
758.426	24.93
758.865	24.72
759.305	26.53
759.745	25.49
760.184	25.16
760.624	25.76
761.063	25.25
761.503	25.16
761.943	25.12
762.382	25.81
762.821	25.53
763.261	25.61
763.7	25.1
764.14	25.65
764.579	25.2
765.018	26
765.457	25.36
765.897	26.01
766.336	25.3
766.775	25.03
767.214	24.94
767.653	25.82
768.092	25.7
768.531	25.98
768.97	25.7
769.409	25.28
769.848	25.2
770.287	25.2
770.726	25.12
771.165	25.34
771.604	25.23
772.043	24.42
772.482	25.5
772.92	25.77
773.359	25.62
773.798	26.03
774.237	25.76
774.675	25.6
775.114	25.04
775.553	26.41
775.991	25.07
776.43	25.01
776.868	25.25
777.307	25.2
777.745	24.9
778.184	25.78
778.622	25.92
779.06	25.33
779.499	25.66
779.937	25.73
780.375	25.51
780.814	25.78
781.252	25.12
781.69	25.94
782.128	25.37
782.566	25.64
783.004	24.94
783.443	26.11
783.881	25.3
784.319	25.69
784.757	25.31
785.195	25.74
785.633	26.66
786.071	25.34
786.508	25.91
786.946	25.53
787.384	25.34
787.822	25.55
788.26	25.48
788.697	25.5
789.135	25.8
789.573	25.34
790.011	25.78
790.448	25.65
790.886	25.89
791.323	25.31
791.761	26.1
792.198	25.62
792.636	25.78
793.073	25.43
793.511	25.47
793.948	25.93
794.386	26.1
794.823	26.26
795.26	25.64
795.698	25.51
796.135	25.48
796.572	26.07
797.009	25.17
797.446	26.41
797.884	25.52
798.321	26.55
798.758	25.62
799.195	25.64
799.632	25.02
800.069	25.8
800.506	25.47
800.943	25.62
801.38	26.09
801.817	25.64
802.254	25.54
802.69	25.95
803.127	25.65
803.564	25.88
804.001	26.09
804.438	26.29
804.874	25.8
805.311	25.74
805.748	26.2
806.184	25.22
806.621	25.88
807.057	25.98
807.494	25.42
807.93	26.04
808.367	25.92
808.803	26.09
809.24	26.01
809.676	26.42
810.112	25.24
810.549	25.66
810.985	25.82
811.421	25.65
811.857	25.88
812.294	25.29
812.73	26.24
813.166	26.37
813.602	25.6
814.038	26.31
814.474	25.97
814.91	25.79
815.346	26.24
815.782	26.11
816.218	26.07
816.654	26.18
817.09	26.21
817.526	26.16
817.962	25.56
818.398	26.39
818.833	25.87
819.269	26.17
819.705	25.79
820.141	25.6
820.576	25.94
821.012	25.81
821.447	26.19
821.883	26.43
822.319	26.39
822.754	25.57
823.19	25.87
823.625	25.74
824.061	26.07
824.496	26.09
824.931	25.97
825.367	25.75
825.802	25.76
826.237	26.01
826.673	26.77
827.108	25.51
827.543	25.99
827.978	25.97
828.413	25.69
828.849	26.59
829.284	26.07
829.719	25.95
830.154	26.07
830.589	26.03
831.024	25.92
831.459	25.48
831.894	25.98
832.329	26.16
832.763	26.06
833.198	26.01
833.633	25.79
834.068	25.85
834.503	26.42
834.937	26.1
835.372	26.42
835.807	26.61
836.241	26.44
836.676	26.05
837.111	25.91
837.545	26.08
837.98	25.77
838.414	25.84
838.849	26.29
839.283	26.01
839.717	26.2
840.152	25.92
840.586	26.07
841.021	26.42
841.455	25.97
841.889	26.54
842.323	26.26
842.758	26.32
843.192	25.88
843.626	25.93
844.06	26.2
844.494	26.32
844.928	26.33
845.362	26.03
845.796	26.12
846.23	26
846.664	26.17
847.098	26.26
847.532	26.19
847.966	25.69
848.4	26.2
848.834	25.79
849.267	26.06
849.701	26.27
850.135	26.18
850.569	26.45
851.002	26.44
851.436	26.28
851.87	26.04
852.303	26.65
852.737	26.59
853.17	25.99
853.604	26.7
854.037	25.99
854.471	26.55
854.904	26.38
855.337	26.57
855.771	26.24
856.204	26.41
856.637	26.48
857.071	26.53
857.504	26.14
857.937	26.48
858.37	25.98
858.804	26.4
859.237	26.64
859.67	26.55
860.103	26.4
860.536	26.52
860.969	26.34
861.402	26.32
861.835	26.37
862.268	26.35
862.701	26.52
863.134	26.53
863.566	26.65
863.999	26.37
864.432	26.31
864.865	26.61
865.298	26.27
865.73	25.92
866.163	26.67
866.596	26.34
867.028	26.29
867.461	27
867.893	26.05
868.326	26.03
868.758	26.51
869.191	26.53
869.623	26.47
870.056	26.23
870.488	26.56
870.92	26.65
871.353	26.33
871.785	26.4
872.217	26.67
872.65	26.61
873.082	26.62
873.514	26.6
873.946	27.01
874.378	26.62
874.81	26.83
875.243	26.74
875.675	26.48
876.107	26.66
876.539	26.75
876.971	26.94
877.403	26.62
877.834	26.39
878.266	26.64
878.698	26.85
879.13	26.73
879.562	26.86
879.994	26.53
880.425	26.8
880.857	26.93
881.289	26.63
881.72	26.79
882.152	26.55
882.584	26.6
883.015	26.66
883.447	26.79
883.878	27.01
884.31	27.15
884.741	26.72
885.173	26.91
885.604	26.8
886.035	26.61
886.467	26.82
886.898	26.94
887.329	27.07
887.76	26.89
888.192	26.93
888.623	26.47
889.054	26.92
889.485	26.62
889.916	27.11
890.347	26.86
890.778	27.04
891.209	26.87
891.64	26.69
892.071	26.54
892.502	26.77
892.933	26.78
893.364	27.17
893.795	26.58
894.226	27.53
894.657	26.61
895.087	27.19
895.518	27.25
895.949	27.26
896.38	26.91
896.81	27.24
897.241	26.66
897.671	26.12
898.102	27.05
898.533	27.21
898.963	27.26
899.394	26.66
899.824	27.17
900.254	27.28
900.685	27.24
901.115	27
901.546	26.76
901.976	27.52
902.406	27.37
902.836	26.73
903.267	27.23
903.697	27.63
904.127	26.74
904.557	27.34
904.987	27.06
905.417	27.22
905.847	27.32
906.277	27.44
906.707	27.06
907.137	27.49
907.567	26.83
907.997	26.96
908.427	27.26
908.857	27.15
909.287	27.57
909.717	27.14
910.146	27.35
910.576	27.32
911.006	27.48
911.436	27.32
911.865	27.06
912.295	27.39
912.724	27.53
913.154	27.34
913.584	27.14
914.013	27.55
914.443	27.28
914.872	27.05
915.302	27.65
915.731	27.39
916.16	27.06
916.59	27.74
917.019	27.5
917.448	27.26
917.878	27.31
918.307	27.46
918.736	27.29
919.165	27.6
919.594	27.29
920.023	27.16
920.452	27.82
920.882	27.45
921.311	27.26
921.74	27.28
922.169	27.53
922.597	27.1
923.026	27.41
923.455	27.51
923.884	27.47
924.313	27.59
924.742	27.22
925.171	27.08
925.599	27.55
926.028	27.56
926.457	27.37
926.885	26.98
927.314	27.67
927.743	26.98
928.171	27.17
928.6	27.19
929.028	27.75
929.457	27.5
929.885	27.32
930.314	27.65
930.742	27.88
931.17	27.4
931.599	27.63
932.027	27.42
932.455	27.49
932.884	27.83
933.312	27.34
933.74	27.43
934.168	28.13
934.596	27.72
935.025	28.21
935.453	27.54
935.881	27.76
936.309	27.74
936.737	27.23
937.165	28.01
937.593	27.77
938.021	27.92
938.449	27.6
938.876	27.15
939.304	28.08
939.732	27.25
940.16	27.69
940.588	27.32
941.015	27.45
941.443	27.07
941.871	27.51
942.298	27.87
942.726	27.41
943.154	27.22
943.581	27.87
944.009	27.3
944.436	27.21
944.864	27.5
945.291	27.48
945.718	27.71
946.146	28.08
946.573	28.01
947.001	27.94
947.428	28.3
947.855	27.64
948.282	27.2
948.71	27.59
949.137	27.48
949.564	28
949.991	27.7
950.418	27.92
950.845	28.03
951.272	27.46
951.699	28.33
952.126	27.19
952.553	28
952.98	27.78
953.407	27.69
953.834	28.41
954.261	28.27
954.688	27.36
955.114	28.11
955.541	27.76
955.968	27.57
956.395	28.05
956.821	27.86
957.248	28.21
957.674	28.05
958.101	28.18
958.528	27.91
958.954	27.73
959.381	27.97
959.807	27.95
960.234	28.04
960.66	27.8
961.086	28
961.513	27.97
961.939	27.84
962.365	28.35
962.792	28.27
963.218	28.1
963.644	27.88
964.07	28.17
964.496	27.88
964.923	28.12
965.349	27.68
965.775	28.12
966.201	28.28
966.627	27.9
967.053	28.29
967.479	28.18
967.905	28.26
968.331	28.12
968.756	28.32
969.182	27.8
969.608	27.98
970.034	28.17
970.46	28.12
970.885	27.97
971.311	28.34
971.737	27.96
972.162	28.01
972.588	27.96
973.014	28.36
973.439	28.11
973.865	28.06
974.29	28.45
974.716	28.21
975.141	28.07
975.567	28.1
975.992	28.34
976.417	28.18
976.843	28.19
977.268	28.17
977.693	27.98
978.119	28.32
978.544	28.41
978.969	28.26
979.394	28.32
979.819	28.25
980.244	28.18
980.669	28.24
981.095	28.02
981.52	28.66
981.945	28.01
982.369	28.79
982.794	28.4
983.219	28.34
983.644	28.21
984.069	28.2
984.494	28.3
984.919	28.49
985.343	28.38
985.768	28.38
986.193	28.43
986.618	28.52
987.042	28.25
987.467	28.26
987.891	28.22
988.316	28.21
988.741	28.45
989.165	28.72
989.59	28.21
990.014	28.28
990.438	28.32
990.863	28.27
991.287	28.66
991.712	28.05
992.136	28.62
992.56	28.47
992.984	28.42
993.409	28.15
993.833	28.51
994.257	28.5
994.681	28.47
995.105	28.26
995.529	28.4
995.953	28.56
996.377	28.74
996.801	28.47
997.225	28.73
997.649	28.7
998.073	28.39
998.497	28.62
998.921	28.67
999.345	28.54
999.769	28.86
1000.192	28.74
1000.616	28.62
1001.04	28.98
1001.464	28.64
1001.887	28.66
1002.311	28.45
1002.734	28.84
1003.158	28.97
1003.582	28.73
1004.005	28.88
1004.429	28.68
1004.852	29.07
1005.275	28.71
1005.699	28.92
1006.122	28.68
1006.546	28.94
1006.969	28.93
1007.392	29.24
1007.815	29.06
1008.239	28.3
1008.662	29.22
1009.085	29.02
1009.508	28.87
1009.931	29.22
1010.354	28.86
1010.778	29.39
1011.201	28.99
1011.624	28.9
1012.047	28.65
1012.469	28.93
1012.892	28.81
1013.315	28.57
1013.738	29.27
1014.161	29.64
1014.584	29.14
1015.007	28.69
1015.429	28.65
1015.852	29.11
1016.275	29.16
1016.697	29.36
1017.12	28.87
1017.543	28.78
1017.965	28.91
1018.388	29.3
1018.81	29.56
1019.233	29.13
1019.655	29.36
1020.078	29.35
1020.5	29.23
1020.922	29.39
1021.345	29.18
1021.767	29.58
1022.189	29.28
1022.612	29.83
1023.034	29.58
1023.456	29.33
1023.878	29.58
1024.301	29.56
1024.723	29.68
1025.145	29.37
1025.567	29.49
1025.989	29.57
1026.411	29.69
1026.833	29.52
1027.255	29.52
1027.677	29.32
1028.099	29.26
1028.52	29.16
1028.942	29.22
1029.364	29.17
1029.786	29.44
1030.208	29.54
1030.629	29.22
1031.051	29.75
1031.473	29.5
1031.894	29.5
1032.316	29.67
1032.738	30.17
1033.159	29.9
1033.581	29.49
1034.002	29.74
1034.424	29.38
1034.845	29.81
1035.267	29.36
1035.688	29.49
1036.109	29.71
1036.531	29.78
1036.952	29.62
1037.373	29.91
1037.794	29.88
1038.216	29.55
1038.637	29.48
1039.058	30.19
1039.479	29.29
1039.9	29.88
1040.321	29.7
1040.742	30.08
1041.163	29.68
1041.584	29.84
1042.005	30.22
1042.426	30
1042.847	29.8
1043.268	29.77
1043.689	29.96
1044.11	30.04
1044.53	30.22
1044.951	30.23
1045.372	29.65
1045.793	30.14
1046.213	30.34
1046.634	29.53
1047.055	30
1047.475	30.23
1047.896	29.74
1048.316	29.64
1048.737	30.38
1049.157	29.9
1049.578	29.89
1049.998	29.47
1050.419	30.21
1050.839	30.25
1051.259	30.03
1051.68	30.29
1052.1	30.45
1052.52	30.11
1052.94	29.23
1053.361	29.86
1053.781	29.44
1054.201	29.93
1054.621	29.88
1055.041	30.51
1055.461	30.79
1055.881	30.88
1056.301	29.97
1056.721	29.77
1057.141	30.3
1057.561	30.06
1057.981	30.43
1058.401	30.35
1058.82	30.37
1059.24	30.45
1059.66	30.38
1060.08	30.78
1060.499	29.48
1060.919	30.36
1061.339	30.78
1061.758	29.79
1062.178	30.75
1062.598	30.61
1063.017	31.02
1063.437	29.99
1063.856	30.61
1064.276	30.33
1064.695	30.64
1065.114	30.36
1065.534	30.19
1065.953	30.28
1066.372	30.54
1066.792	30.73
1067.211	29.79
1067.63	30.27
1068.049	30.84
1068.469	31.08
1068.888	30.2
1069.307	29.82
1069.726	31.06
1070.145	30.03
1070.564	29.98
1070.983	30.2
1071.402	31.03
1071.821	30.24
1072.24	30.66
1072.659	30.85
1073.078	30.01
1073.496	30.55
1073.915	30.21
1074.334	30.33
1074.753	30.54
1075.171	30.95
1075.59	30.15
1076.009	30.34
1076.427	30.55
1076.846	29.55
1077.265	31.11
1077.683	29.73
1078.102	30.02
1078.52	31.9
1078.939	30.82
1079.357	31.16
1079.776	30.23
1080.194	30.49
1080.612	30.77
1081.031	29.9
1081.449	30.22
1081.867	33.21
1082.285	30.36
1082.704	30.39
1083.122	30.2
1083.54	30.94
1083.958	31.53
1084.376	29.88
1084.794	31.11
1085.212	30.51
1085.63	30.56
1086.048	31.51
1086.466	31.52
1086.884	31.09
1087.302	30.42
1087.72	31.01
1088.138	30.85
1088.555	30.82
1088.973	30.15
1089.391	30.25
1089.809	31.5
1090.226	30.51
1090.644	29.46
1091.062	31.31
1091.479	31.27
1091.897	30.99
1092.314	31.12
1092.732	30.52
1093.15	32.36
1093.567	31.82
1093.984	31.43
1094.402	30.8
1094.819	30.83
1095.237	30.9
1095.654	30.55
1096.071	30.35
1096.488	30.8
1096.906	30.97
1097.323	31.32
1097.74	31.4
1098.157	30.84
1098.574	30.16
1098.991	29.71
1099.409	29.97
1099.826	29.72
1100.243	30.49
1100.66	31.03
1101.077	31.78
1101.494	32.04
1101.91	32.07
1102.327	29.87
1102.744	30.98
1103.161	30.85
1103.578	30.81
1103.994	31.32
1104.411	30.05
1104.828	31.45
1105.245	32.13
1105.661	31.12
1106.078	32.6
1106.494	32.36
1106.911	31.58
1107.328	31.77
1107.744	30.23
1108.161	30.7
1108.577	28.69
1108.993	32.14
1109.41	29.11
1109.826	31.83
1110.242	29.75
1110.659	31.22
1111.075	32.2
1111.491	33.23
1111.908	32.52
1112.324	30.42
1112.74	34.56
1113.156	33.55
1113.572	30.79
1113.988	29.25
1114.404	32.11
1114.82	28.52
1115.236	29.9
1115.652	30.58
1116.068	29.54
1116.484	29.52
1116.9	30.69
1117.316	32.45
1117.732	38.24
1118.147	41.46
1118.563	228.57
1118.979	250
