Data from JCR0009_Black1_Reflection_00002.txt Node
Date: Wed Jul 22 16:40:21 ACST 2020
User: Stacey Dix
Spectrometer: MAYP113282
Scans to average: 1
Trigger mode: 0
Integration Time (sec): 1.000000E-1
Electric dark correction enabled: true
Boxcar width: 0
XAxis mode: Wavelengths
Number of Pixels in Spectrum: 2068
>>>>>Begin Spectral Data<<<<<
198.791	-512
199.266	210.53
199.74	34.78
200.215	-32
200.69	101.94
201.164	66.92
201.639	93.39
202.114	62.38
202.588	42.27
203.063	75.49
203.537	50.87
204.012	32.9
204.486	73.31
204.961	38.37
205.435	67.83
205.909	72.15
206.384	64
206.858	71.17
207.332	86.03
207.807	62.88
208.281	67.73
208.755	71.25
209.229	32.6
209.703	43.04
210.177	64.31
210.651	62.73
211.126	59.37
211.6	46.08
212.074	61.86
212.548	28.71
213.021	46.99
213.495	38.36
213.969	55.94
214.443	85.18
214.917	37.69
215.391	54.18
215.864	28.69
216.338	47.29
216.812	26.79
217.286	35.75
217.759	54.6
218.233	60.65
218.706	52.95
219.18	26.43
219.654	39.82
220.127	40.65
220.6	50.43
221.074	25.77
221.547	32.49
222.021	19.51
222.494	37.92
222.967	44.11
223.441	24.93
223.914	39.77
224.387	28.78
224.86	22.63
225.334	25.45
225.807	23.07
226.28	28.16
226.753	23.51
227.226	19.12
227.699	19.52
228.172	14.36
228.645	21.53
229.118	13.92
229.591	13.92
230.064	11.41
230.537	21.89
231.01	11.75
231.482	7.41
231.955	13.47
232.428	12.99
232.901	9.15
233.373	13.73
233.846	8.43
234.319	9.78
234.791	12.6
235.264	11.62
235.736	6.25
236.209	7.73
236.681	13.75
237.154	11.22
237.626	7.47
238.099	11.84
238.571	6.11
239.044	6.64
239.516	6.88
239.988	10.67
240.46	7.45
240.933	7.13
241.405	8.3
241.877	6.13
242.349	5.61
242.821	7.44
243.293	9.13
243.765	4.63
244.237	6.14
244.71	5
245.181	8.65
245.653	8.18
246.125	6.31
246.597	8.55
247.069	7.62
247.541	7.37
248.013	6.61
248.485	8.27
248.956	6.51
249.428	4.88
249.9	8.02
250.371	4.37
250.843	6.52
251.315	5.6
251.786	5.63
252.258	3.41
252.729	5.7
253.201	5.3
253.672	5.21
254.144	4.72
254.615	4.27
255.086	4.39
255.558	4.62
256.029	4.91
256.5	4.7
256.972	5.42
257.443	5
257.914	2.98
258.385	4.42
258.856	4.59
259.327	4.71
259.799	3.86
260.27	4.01
260.741	6.27
261.212	5.39
261.683	4.61
262.154	4.02
262.624	4.23
263.095	3.32
263.566	4.44
264.037	4.4
264.508	4.41
264.979	4.97
265.449	5.51
265.92	3.85
266.391	4.57
266.861	3.71
267.332	4.64
267.803	4.66
268.273	5.04
268.744	3.47
269.214	4.22
269.685	4.24
270.155	3.35
270.626	5.45
271.096	5.5
271.566	5.34
272.037	4.73
272.507	6.13
272.977	3.53
273.448	2.34
273.918	5.52
274.388	4.66
274.858	6.08
275.328	4.66
275.798	3.8
276.268	5.41
276.738	5.72
277.208	4.06
277.678	5.27
278.148	5.64
278.618	4.35
279.088	4.46
279.558	5.26
280.028	5.33
280.498	4.32
280.968	4.39
281.437	5.32
281.907	3.81
282.377	3.61
282.847	5.3
283.316	3.74
283.786	3.7
284.255	4.96
284.725	4.78
285.194	4.26
285.664	3.23
286.133	4.43
286.603	3.34
287.072	3.65
287.542	3.59
288.011	4.69
288.48	4.44
288.95	2.97
289.419	3.41
289.888	5.74
290.357	4.6
290.827	2.9
291.296	3.11
291.765	3.45
292.234	4.7
292.703	3.84
293.172	3.19
293.641	3.72
294.11	3.72
294.579	4.02
295.048	4.97
295.517	4.98
295.986	4.74
296.455	4.21
296.923	4.3
297.392	5.26
297.861	3.74
298.33	3.99
298.798	5.05
299.267	6.14
299.736	2.56
300.204	5.61
300.673	3.5
301.141	4.08
301.61	5.46
302.079	4.85
302.547	2.88
303.015	4.5
303.484	4.8
303.952	4.51
304.421	3.51
304.889	3.55
305.357	5.29
305.825	4.22
306.294	3.78
306.762	4.56
307.23	5.22
307.698	4.88
308.166	4.78
308.634	3.12
309.103	4.98
309.571	4.58
310.039	5.41
310.507	4.48
310.975	4.88
311.442	4.7
311.91	3.68
312.378	5.04
312.846	3.75
313.314	5.65
313.782	4.17
314.249	4.74
314.717	5.43
315.185	5.68
315.652	4.43
316.12	5.23
316.588	3.39
317.055	5.21
317.523	4.55
317.99	5.22
318.458	4.75
318.925	5.01
319.393	3.69
319.86	6.18
320.328	4.91
320.795	5.22
321.262	5.88
321.73	5.24
322.197	4.43
322.664	4.95
323.131	3.38
323.598	5.91
324.066	5.76
324.533	4.38
325	4.62
325.467	5.36
325.934	5.27
326.401	5.09
326.868	4.73
327.335	6.13
327.802	4.81
328.269	5.18
328.735	4.9
329.202	5.21
329.669	5.55
330.136	4.62
330.603	5.27
331.069	5.5
331.536	5.06
332.003	3.64
332.469	5.36
332.936	4.67
333.402	4.52
333.869	4.3
334.336	4.75
334.802	5.05
335.268	3.81
335.735	4.94
336.201	4.85
336.668	4.77
337.134	4.39
337.6	5.41
338.067	5.64
338.533	4.72
338.999	6.11
339.465	7.12
339.931	6.1
340.398	4.63
340.864	5.45
341.33	3.88
341.796	4.97
342.262	4.85
342.728	5.83
343.194	4.31
343.66	6.12
344.126	4.22
344.592	3.85
345.057	5
345.523	4.65
345.989	4.63
346.455	3.99
346.921	6.28
347.386	4.6
347.852	5.44
348.318	5.79
348.783	5.2
349.249	3.57
349.714	5.65
350.18	5
350.645	5.44
351.111	5.31
351.576	4.37
352.042	5.86
352.507	4.99
352.973	4.08
353.438	5.58
353.903	5.56
354.369	4.83
354.834	5.75
355.299	4.39
355.764	6.51
356.229	4.56
356.695	4.35
357.16	6.3
357.625	4.7
358.09	6.74
358.555	6.1
359.02	6.49
359.485	5.04
359.95	7.72
360.415	5.34
360.879	6.01
361.344	4.52
361.809	4.48
362.274	4.61
362.739	6.08
363.203	6.08
363.668	7.12
364.133	4.94
364.597	5.54
365.062	5.15
365.527	6.1
365.991	5.52
366.456	7.14
366.92	5.46
367.385	5.72
367.849	6.16
368.314	5.21
368.778	3.58
369.242	7.4
369.707	6.19
370.171	5.16
370.635	5.21
371.1	5.76
371.564	6.07
372.028	6.88
372.492	5.14
372.956	5.36
373.42	6.65
373.884	5.57
374.348	4.67
374.812	5.71
375.276	5.71
375.74	5.56
376.204	5.98
376.668	6.17
377.132	6.28
377.596	5.56
378.06	4.48
378.524	5.86
378.987	6.27
379.451	4.76
379.915	4.64
380.378	6.18
380.842	4.78
381.306	6.69
381.769	7
382.233	4.94
382.696	4.71
383.16	6.32
383.623	5.62
384.087	5.65
384.55	5.49
385.014	4.05
385.477	5.16
385.94	6.76
386.404	6.2
386.867	5.46
387.33	5.52
387.793	5.74
388.256	5.7
388.72	5.37
389.183	5.22
389.646	5.77
390.109	6.62
390.572	4.74
391.035	5.39
391.498	5.79
391.961	5.02
392.424	4.99
392.887	4.93
393.35	4.64
393.812	5.52
394.275	4.56
394.738	5.33
395.201	4.46
395.664	5.56
396.126	4.34
396.589	5.78
397.052	4.97
397.514	5.38
397.977	5.17
398.439	5.67
398.902	5.24
399.364	6.34
399.827	5.8
400.289	6.06
400.752	5.49
401.214	4.86
401.676	5.5
402.139	4.8
402.601	6.37
403.063	6.65
403.525	5.45
403.988	6.35
404.45	6.29
404.912	5.91
405.374	5.68
405.836	5.37
406.298	5.82
406.76	5.35
407.222	6.66
407.684	6.24
408.146	5.59
408.608	4.95
409.07	6.39
409.532	5.17
409.994	5.47
410.456	7.52
410.917	5.69
411.379	5.71
411.841	4.73
412.303	5.54
412.764	5.87
413.226	5.14
413.687	4.28
414.149	6.17
414.611	6.43
415.072	5.81
415.534	5.42
415.995	4.6
416.457	3.24
416.918	5.76
417.379	4.8
417.841	4.75
418.302	6.08
418.763	4.87
419.225	5.75
419.686	4.72
420.147	4.38
420.608	5.31
421.069	4.75
421.53	4.88
421.991	5.85
422.453	4.37
422.914	6.23
423.375	4.64
423.836	5.39
424.297	7
424.757	6.19
425.218	6.04
425.679	5.69
426.14	5.39
426.601	5.26
427.062	7.37
427.522	6.89
427.983	6.26
428.444	7.18
428.904	6.57
429.365	7.35
429.826	6.19
430.286	5.34
430.747	6.74
431.207	9.08
431.668	8.33
432.128	10.36
432.589	8.89
433.049	7.7
433.509	7.84
433.97	5.79
434.43	7.61
434.89	8.02
435.351	8.39
435.811	6.91
436.271	7.39
436.731	9.05
437.191	8.63
437.651	6.93
438.112	9.12
438.572	6.47
439.032	7.09
439.492	8.04
439.952	8.7
440.412	6.75
440.871	9.78
441.331	8.43
441.791	8.66
442.251	7.6
442.711	7.85
443.171	7.7
443.63	7.22
444.09	7.17
444.55	8.72
445.009	9.34
445.469	6.81
445.929	5.52
446.388	8.06
446.848	6.35
447.307	7.55
447.767	7.91
448.226	8.13
448.686	7.61
449.145	6.13
449.604	7.46
450.064	7.36
450.523	7.59
450.982	6.82
451.442	8.78
451.901	8.03
452.36	7.58
452.819	8.74
453.278	8.11
453.737	7.61
454.197	6.17
454.656	8.19
455.115	10.01
455.574	8.25
456.033	7.46
456.492	8.5
456.95	8.75
457.409	9.62
457.868	7.18
458.327	6.75
458.786	8.45
459.245	9.21
459.703	6.83
460.162	7.65
460.621	7.85
461.079	7.93
461.538	7.5
461.997	8.38
462.455	6.88
462.914	7.67
463.372	10.74
463.831	8.1
464.289	8.5
464.748	8.17
465.206	9.79
465.664	8.48
466.123	8.3
466.581	10
467.039	7.49
467.497	7.56
467.956	10.13
468.414	9.91
468.872	8.71
469.33	9.12
469.788	8.13
470.246	8.15
470.704	8.29
471.162	7.23
471.62	8.88
472.078	9.95
472.536	7.66
472.994	8.29
473.452	6.6
473.91	9.87
474.368	9.19
474.826	8.97
475.283	11.34
475.741	7.68
476.199	9.04
476.656	8.43
477.114	8.12
477.572	8.46
478.029	8.67
478.487	10.24
478.944	7.51
479.402	9.2
479.859	11.3
480.317	9.5
480.774	9.08
481.232	7.83
481.689	8.79
482.146	9.8
482.604	11.02
483.061	6.47
483.518	9.06
483.975	7.13
484.433	6.69
484.89	8.91
485.347	10.31
485.804	8.33
486.261	8.83
486.718	8.68
487.175	9.9
487.632	9.07
488.089	9.41
488.546	10.61
489.003	8.46
489.46	12.91
489.917	8.49
490.373	8.27
490.83	8.8
491.287	9.62
491.744	9.79
492.2	10.63
492.657	7.27
493.114	8.04
493.57	7.44
494.027	10.87
494.484	8.42
494.94	8.65
495.397	9.1
495.853	12.14
496.31	8.15
496.766	8.9
497.222	13.05
497.679	11.69
498.135	9.71
498.591	8.06
499.048	8.86
499.504	9.72
499.96	8.4
500.416	9.8
500.872	7.42
501.329	8.63
501.785	8.03
502.241	7.77
502.697	7.38
503.153	10.34
503.609	9.58
504.065	8.4
504.521	7.98
504.977	8.39
505.432	9.84
505.888	8.79
506.344	7.86
506.8	9.46
507.256	8.8
507.711	8.04
508.167	9.07
508.623	8.68
509.078	9.83
509.534	8.34
509.99	8.35
510.445	7.15
510.901	7.8
511.356	9.43
511.812	8.81
512.267	9.72
512.722	8.83
513.178	7.94
513.633	7.74
514.089	8.34
514.544	10.13
514.999	7.54
515.454	7.18
515.91	8.03
516.365	8.55
516.82	7.43
517.275	9.25
517.73	8.08
518.185	8.16
518.64	8.42
519.095	8.31
519.55	8.77
520.005	8.48
520.46	9.29
520.915	9.21
521.37	7.84
521.825	8.67
522.28	7.77
522.734	9.01
523.189	9.36
523.644	9.38
524.099	9.35
524.553	6.93
525.008	9.03
525.462	7.24
525.917	7.28
526.372	9.78
526.826	9.06
527.281	6.37
527.735	7.74
528.19	9.08
528.644	9
529.098	7.84
529.553	9.66
530.007	8.61
530.461	8.36
530.916	8.61
531.37	9.17
531.824	9.78
532.278	7.04
532.732	9.28
533.186	7.33
533.641	8.76
534.095	8.17
534.549	7.63
535.003	6.1
535.457	7.88
535.911	8.52
536.365	8.23
536.818	7.91
537.272	8.71
537.726	7.43
538.18	9.81
538.634	7.89
539.087	7.34
539.541	6.16
539.995	9.96
540.449	7.99
540.902	8.08
541.356	8.51
541.809	8.43
542.263	7.19
542.716	8.89
543.17	8.2
543.623	8.34
544.077	8.47
544.53	8.47
544.984	8.84
545.437	8.91
545.89	9.08
546.344	7.17
546.797	8.06
547.25	7.9
547.703	7.75
548.157	9.78
548.61	8.15
549.063	8.45
549.516	6.94
549.969	8.92
550.422	9.69
550.875	8.14
551.328	8.97
551.781	8.5
552.234	8.63
552.687	9.45
553.14	7.64
553.592	9.41
554.045	8.26
554.498	7.68
554.951	6.74
555.404	9.08
555.856	9
556.309	8.61
556.762	7.57
557.214	7.89
557.667	8.23
558.119	8.02
558.572	7.1
559.024	8.86
559.477	7.18
559.929	10.05
560.382	8.85
560.834	7.74
561.286	7.44
561.739	8.8
562.191	10.37
562.643	8.43
563.095	9.22
563.548	7.72
564	8.38
564.452	9.25
564.904	8.22
565.356	8.34
565.808	8.5
566.26	8.14
566.712	8.18
567.164	8.1
567.616	7.29
568.068	8.22
568.52	8.2
568.972	7.23
569.424	7.37
569.876	6.43
570.327	8.47
570.779	8.47
571.231	8.54
571.682	6.77
572.134	8.23
572.586	7.01
573.037	7.84
573.489	7.46
573.941	7.48
574.392	8.48
574.844	8.64
575.295	7.37
575.746	7.27
576.198	8.45
576.649	8.13
577.101	8.11
577.552	8.46
578.003	7.34
578.454	6.32
578.906	7.24
579.357	7.08
579.808	6.83
580.259	7.1
580.71	7.35
581.161	7.44
581.612	7.85
582.064	6.84
582.515	6.76
582.965	7.58
583.416	7.6
583.867	7.68
584.318	8.99
584.769	8.19
585.22	8.1
585.671	7.78
586.122	8.43
586.572	8.19
587.023	8.14
587.474	8.58
587.924	7.91
588.375	8.18
588.826	8.66
589.276	7.44
589.727	8.11
590.177	8.51
590.628	7.26
591.078	7.77
591.529	8.02
591.979	7.58
592.429	8.08
592.88	7.92
593.33	7.38
593.78	8.56
594.231	8.31
594.681	7.42
595.131	7.01
595.581	9.33
596.031	7.66
596.481	7.97
596.932	8.21
597.382	8.27
597.832	8.33
598.282	8.38
598.732	8.48
599.182	8.46
599.632	9.3
600.081	9.24
600.531	8.56
600.981	8.05
601.431	8.98
601.881	8
602.33	7.85
602.78	7.56
603.23	7.37
603.679	8.41
604.129	7.88
604.579	7.53
605.028	8.08
605.478	7.9
605.927	7.75
606.377	8.56
606.826	9.3
607.276	8.46
607.725	7.78
608.175	8.37
608.624	8.19
609.073	7.9
609.522	7.48
609.972	7.85
610.421	6.96
610.87	8.07
611.319	7.51
611.768	8.72
612.218	8.06
612.667	8.04
613.116	8.55
613.565	7.09
614.014	7.67
614.463	7.51
614.912	8.56
615.361	7.83
615.81	8.25
616.258	8.21
616.707	8.52
617.156	8.47
617.605	7.63
618.054	8.24
618.502	7.66
618.951	9.13
619.4	7.76
619.848	8.88
620.297	8.43
620.745	8.8
621.194	7.63
621.642	8.4
622.091	7.84
622.539	7.66
622.988	7.94
623.436	8.3
623.885	7.31
624.333	8.4
624.781	8.15
625.23	7.5
625.678	7.67
626.126	7.56
626.574	7.82
627.022	7.99
627.471	8.27
627.919	8.19
628.367	7.79
628.815	8.35
629.263	7.71
629.711	7.9
630.159	7.16
630.607	7.57
631.055	8.02
631.503	7.96
631.95	7.47
632.398	8.49
632.846	8.28
633.294	8.03
633.742	8.15
634.189	7.64
634.637	7.7
635.085	7.4
635.532	8.16
635.98	7.82
636.427	7.49
636.875	7.69
637.323	8.54
637.77	7.6
638.217	7.89
638.665	8.34
639.112	7.28
639.56	8.17
640.007	8.32
640.454	7.7
640.902	8.33
641.349	8.02
641.796	7.38
642.243	8.21
642.69	8.08
643.138	8.55
643.585	8.2
644.032	7.86
644.479	8.2
644.926	7.77
645.373	8.65
645.82	7.38
646.267	7.73
646.714	8.22
647.161	7.78
647.607	8.17
648.054	7.96
648.501	7.99
648.948	8.34
649.395	7.85
649.841	7.94
650.288	7.85
650.735	7.37
651.181	8.03
651.628	8.41
652.075	7.56
652.521	7.68
652.968	8.18
653.414	7.97
653.861	8.39
654.307	8.37
654.753	7.73
655.2	7.79
655.646	8.21
656.092	8.42
656.539	8.33
656.985	8.65
657.431	7.43
657.877	8.08
658.324	7.61
658.77	7.88
659.216	7.63
659.662	7.39
660.108	7.8
660.554	7.93
661	8.29
661.446	8.24
661.892	8.35
662.338	8.1
662.784	8.33
663.23	8.07
663.675	8.22
664.121	8.76
664.567	8.8
665.013	8.14
665.458	7.42
665.904	8.34
666.35	7.33
666.795	7.57
667.241	8.06
667.687	7.66
668.132	8.43
668.578	8.07
669.023	8.6
669.469	7.84
669.914	8.32
670.359	8.07
670.805	8.77
671.25	7.46
671.695	8.94
672.141	8.12
672.586	8.37
673.031	8.58
673.476	8.13
673.922	8.13
674.367	8.13
674.812	8.29
675.257	8.61
675.702	8.94
676.147	8.24
676.592	9
677.037	8.14
677.482	7.79
677.927	7.76
678.372	8.27
678.817	7.52
679.261	8.31
679.706	8.84
680.151	8.1
680.596	7.83
681.04	8.65
681.485	8.25
681.93	7.89
682.374	9.13
682.819	8.11
683.264	8.21
683.708	8.4
684.153	8.1
684.597	8.47
685.042	8.64
685.486	8.49
685.93	7.63
686.375	8.15
686.819	8.3
687.263	8.15
687.708	8.27
688.152	8.21
688.596	8.91
689.04	8.91
689.485	8.46
689.929	9
690.373	8.58
690.817	8.01
691.261	8.56
691.705	7.94
692.149	8.84
692.593	8.52
693.037	8.01
693.481	8.27
693.925	8.45
694.369	8.34
694.812	8.5
695.256	8.45
695.7	8.29
696.144	8.35
696.587	8.27
697.031	8.52
697.475	8.49
697.918	8.5
698.362	8.36
698.806	8.23
699.249	8.16
699.693	9.02
700.136	8.11
700.58	8.96
701.023	8.49
701.466	8.41
701.91	8.84
702.353	9.34
702.796	8.69
703.24	8.83
703.683	8.77
704.126	8.44
704.569	8.71
705.013	8.19
705.456	8.42
705.899	8.73
706.342	8.62
706.785	8.61
707.228	7.97
707.671	8.29
708.114	8.41
708.557	8.34
709	8.8
709.443	7.91
709.886	8.73
710.328	8.15
710.771	8.17
711.214	8.49
711.657	8.14
712.099	9.48
712.542	8.55
712.985	8.78
713.427	8.99
713.87	8.81
714.313	8.34
714.755	8.22
715.198	8.55
715.64	9.19
716.083	8.67
716.525	8.38
716.967	8.58
717.41	9.26
717.852	8.99
718.295	8.36
718.737	8.55
719.179	8.76
719.621	8.18
720.063	8.96
720.506	8.57
720.948	8.53
721.39	8.63
721.832	9.18
722.274	9.51
722.716	8.88
723.158	8.71
723.6	8.95
724.042	8.72
724.484	8.81
724.926	8.31
725.368	8.06
725.81	9.09
726.251	8.68
726.693	9.21
727.135	9.26
727.577	9.23
728.018	8.8
728.46	8.6
728.902	9.07
729.343	8.78
729.785	9.45
730.226	9.34
730.668	9.27
731.109	8.48
731.551	9.34
731.992	9.04
732.434	8.88
732.875	9.22
733.316	8.99
733.758	9.15
734.199	9.15
734.64	8.68
735.081	8.54
735.523	8.64
735.964	8.68
736.405	8.88
736.846	8.86
737.287	8.79
737.728	9.11
738.169	8.74
738.61	8.88
739.051	9.54
739.492	9.94
739.933	9.29
740.374	9.07
740.815	8.99
741.256	9.18
741.696	9.73
742.137	9.51
742.578	9.1
743.019	8.78
743.459	9.19
743.9	9.05
744.341	8.97
744.781	9.64
745.222	8.99
745.662	9.84
746.103	8.98
746.543	9.45
746.984	9.4
747.424	8.9
747.865	10.01
748.305	9.02
748.745	9.01
749.186	9.35
749.626	9.3
750.066	9.37
750.506	9.23
750.947	9.15
751.387	9.59
751.827	9.39
752.267	9.72
752.707	10.01
753.147	8.72
753.587	9.57
754.027	9.11
754.467	10.22
754.907	9.24
755.347	9.46
755.787	9.32
756.227	9.76
756.667	9.75
757.107	8.99
757.546	9.91
757.986	9.72
758.426	9.71
758.865	9.36
759.305	9.37
759.745	9.11
760.184	9.62
760.624	9.39
761.063	9.25
761.503	9.28
761.943	9.72
762.382	9.62
762.821	9.86
763.261	9.18
763.7	9.83
764.14	9.53
764.579	9.97
765.018	9.36
765.457	9.56
765.897	9.12
766.336	9.71
766.775	10.01
767.214	9.67
767.653	9.73
768.092	9.63
768.531	10.12
768.97	9.87
769.409	10
769.848	9.6
770.287	9.6
770.726	10.06
771.165	9.55
771.604	9.88
772.043	9.97
772.482	9.31
772.92	9.8
773.359	9.87
773.798	9.76
774.237	9.73
774.675	9.87
775.114	9.44
775.553	10.05
775.991	9.93
776.43	9.5
776.868	9.73
777.307	10.28
777.745	10.19
778.184	9.48
778.622	9.69
779.06	9.96
779.499	9.54
779.937	9.79
780.375	9.88
780.814	9.93
781.252	9.86
781.69	10.04
782.128	10.08
782.566	10.07
783.004	10.01
783.443	9.86
783.881	9.53
784.319	10.34
784.757	9.89
785.195	9.73
785.633	9.65
786.071	9.85
786.508	10.02
786.946	10.66
787.384	9.71
787.822	9.85
788.26	10.52
788.697	9.82
789.135	9.93
789.573	9.51
790.011	10.11
790.448	9.53
790.886	10.77
791.323	10.23
791.761	10.21
792.198	10.28
792.636	10.27
793.073	10.15
793.511	10.17
793.948	10.39
794.386	10.79
794.823	10.08
795.26	9.86
795.698	10.24
796.135	9.92
796.572	10.4
797.009	10.23
797.446	10.24
797.884	10.29
798.321	10.34
798.758	10.25
799.195	10.59
799.632	10.22
800.069	9.84
800.506	10.34
800.943	10.01
801.38	10.14
801.817	10.03
802.254	10.27
802.69	10.63
803.127	10.4
803.564	10.25
804.001	10.27
804.438	10.3
804.874	10.53
805.311	10.5
805.748	10.31
806.184	10.78
806.621	10.25
807.057	10.67
807.494	10.1
807.93	10.32
808.367	10.75
808.803	10.32
809.24	10.53
809.676	10.78
810.112	10.58
810.549	10.67
810.985	10.31
811.421	10.25
811.857	10.76
812.294	10.68
812.73	10.15
813.166	10.34
813.602	10.7
814.038	10.24
814.474	10.4
814.91	10.38
815.346	10.51
815.782	10.2
816.218	11.04
816.654	10.38
817.09	10.47
817.526	11.24
817.962	10.8
818.398	10.5
818.833	10.75
819.269	10.21
819.705	10.5
820.141	10.87
820.576	10.46
821.012	11.12
821.447	10.95
821.883	10.77
822.319	10.62
822.754	10.41
823.19	10.77
823.625	11.12
824.061	10.56
824.496	11.23
824.931	10.54
825.367	11.13
825.802	10.87
826.237	10.83
826.673	10.71
827.108	10.69
827.543	11.07
827.978	10.82
828.413	10.45
828.849	10.58
829.284	11.07
829.719	11.09
830.154	10.98
830.589	10.8
831.024	11.36
831.459	10.76
831.894	11.11
832.329	11.03
832.763	10.69
833.198	10.89
833.633	10.85
834.068	11.09
834.503	11.35
834.937	11.16
835.372	11.29
835.807	11.14
836.241	10.96
836.676	11.17
837.111	11
837.545	11.62
837.98	10.86
838.414	11.05
838.849	10.9
839.283	11.67
839.717	11.31
840.152	10.94
840.586	10.98
841.021	11.51
841.455	11.18
841.889	10.98
842.323	11.32
842.758	11.61
843.192	11.52
843.626	11.35
844.06	11.42
844.494	11.62
844.928	11.07
845.362	11.57
845.796	12.12
846.23	11.54
846.664	11.51
847.098	11.32
847.532	11.3
847.966	11.69
848.4	11.4
848.834	11.13
849.267	11.23
849.701	11.87
850.135	11.7
850.569	11.59
851.002	11.82
851.436	11.72
851.87	11.54
852.303	11.82
852.737	12.05
853.17	11.28
853.604	11.64
854.037	11.42
854.471	12.12
854.904	11.8
855.337	11.89
855.771	11.76
856.204	11.93
856.637	11.51
857.071	11.64
857.504	11.82
857.937	11.42
858.37	11.93
858.804	11.71
859.237	12.66
859.67	11.74
860.103	11.96
860.536	11.54
860.969	11.53
861.402	11.63
861.835	11.92
862.268	11.28
862.701	11.84
863.134	11.94
863.566	12.48
863.999	12.13
864.432	12.18
864.865	11.89
865.298	11.79
865.73	12.33
866.163	11.78
866.596	12.33
867.028	11.79
867.461	12.11
867.893	12.79
868.326	12.13
868.758	12.2
869.191	12.19
869.623	12.47
870.056	12.31
870.488	11.91
870.92	12.27
871.353	12.7
871.785	11.81
872.217	12.27
872.65	12.41
873.082	12.29
873.514	12.3
873.946	12.42
874.378	12.56
874.81	12.12
875.243	12.61
875.675	11.98
876.107	12.37
876.539	12.63
876.971	12.31
877.403	12.32
877.834	12.42
878.266	12.22
878.698	12.4
879.13	12.79
879.562	12.34
879.994	12.73
880.425	12.68
880.857	12.65
881.289	12.71
881.72	13.33
882.152	12.64
882.584	12.31
883.015	12.69
883.447	11.96
883.878	12.52
884.31	12.61
884.741	12.81
885.173	12.68
885.604	12.62
886.035	12.48
886.467	12.94
886.898	12.97
887.329	13.05
887.76	12.57
888.192	12.9
888.623	12.46
889.054	12.59
889.485	12.93
889.916	12.7
890.347	12.9
890.778	12.77
891.209	12.87
891.64	12.81
892.071	12.98
892.502	12.93
892.933	12.68
893.364	12.86
893.795	12.75
894.226	12.89
894.657	12.97
895.087	12.97
895.518	12.98
895.949	12.86
896.38	12.94
896.81	12.83
897.241	13.19
897.671	13.01
898.102	12.83
898.533	13.34
898.963	13.23
899.394	13.03
899.824	13.23
900.254	12.85
900.685	13.15
901.115	13.03
901.546	12.99
901.976	13.13
902.406	13.47
902.836	13.2
903.267	13.22
903.697	13.54
904.127	13.24
904.557	13.36
904.987	13.16
905.417	12.91
905.847	13.2
906.277	13.52
906.707	13.5
907.137	13.37
907.567	12.9
907.997	13.32
908.427	13.51
908.857	13.54
909.287	13.65
909.717	13.45
910.146	13.77
910.576	13.49
911.006	13.69
911.436	13.65
911.865	13.4
912.295	14.06
912.724	13.9
913.154	13.52
913.584	13.68
914.013	13.79
914.443	13.57
914.872	13.89
915.302	13.4
915.731	13.63
916.16	13.62
916.59	13.8
917.019	13.6
917.448	14.13
917.878	14.13
918.307	13.9
918.736	14.2
919.165	13.63
919.594	13.83
920.023	13.89
920.452	13.84
920.882	13.81
921.311	13.81
921.74	13.98
922.169	14.09
922.597	14.15
923.026	14.15
923.455	13.83
923.884	14.14
924.313	13.93
924.742	13.78
925.171	14.03
925.599	14.16
926.028	14.24
926.457	14.12
926.885	14.33
927.314	14.36
927.743	13.96
928.171	13.81
928.6	14.23
929.028	14.37
929.457	14.19
929.885	14.08
930.314	14.2
930.742	14.11
931.17	14.16
931.599	14.38
932.027	14.58
932.455	14.45
932.884	14.55
933.312	14.42
933.74	14.73
934.168	14.15
934.596	14.35
935.025	14.36
935.453	14.25
935.881	14.81
936.309	14.48
936.737	14.54
937.165	14.69
937.593	14.61
938.021	15.1
938.449	14.44
938.876	14.49
939.304	14.98
939.732	15.47
940.16	14.53
940.588	15.17
941.015	14.51
941.443	15.13
941.871	15.23
942.298	14.76
942.726	14.92
943.154	15.3
943.581	15.1
944.009	14.95
944.436	14.83
944.864	15.48
945.291	14.85
945.718	14.98
946.146	15.05
946.573	15.09
947.001	15.4
947.428	14.74
947.855	15.19
948.282	14.77
948.71	15.05
949.137	15.5
949.564	15.04
949.991	15.18
950.418	15.61
950.845	15.25
951.272	15.39
951.699	15.39
952.126	15.52
952.553	15.7
952.98	15.29
953.407	15.02
953.834	15.53
954.261	15.45
954.688	15.32
955.114	15.19
955.541	15.84
955.968	14.89
956.395	15.16
956.821	15.57
957.248	15.82
957.674	15.47
958.101	15.22
958.528	15.37
958.954	15.48
959.381	15.48
959.807	15.5
960.234	15.84
960.66	15.03
961.086	15.74
961.513	15.42
961.939	15.27
962.365	15.8
962.792	15.64
963.218	15.65
963.644	15.55
964.07	15.63
964.496	15.6
964.923	15.69
965.349	15.61
965.775	15.97
966.201	16.07
966.627	15.95
967.053	16.12
967.479	15.72
967.905	15.87
968.331	15.98
968.756	15.7
969.182	15.8
969.608	15.56
970.034	16.24
970.46	15.74
970.885	15.79
971.311	15.61
971.737	15.97
972.162	16.36
972.588	16.12
973.014	15.96
973.439	15.83
973.865	16.23
974.29	16.11
974.716	15.92
975.141	15.76
975.567	15.83
975.992	15.96
976.417	16.27
976.843	15.98
977.268	16.24
977.693	16.25
978.119	16.35
978.544	16.26
978.969	16.57
979.394	16.46
979.819	16.3
980.244	16.48
980.669	16.43
981.095	16.36
981.52	16.24
981.945	16.53
982.369	16.62
982.794	16.62
983.219	16.2
983.644	16.26
984.069	17.07
984.494	16.42
984.919	16.71
985.343	16.33
985.768	16.63
986.193	16.69
986.618	16.8
987.042	16.76
987.467	16.63
987.891	16.78
988.316	16.63
988.741	16.95
989.165	16.66
989.59	16.94
990.014	16.86
990.438	16.51
990.863	16.96
991.287	16.89
991.712	16.77
992.136	16.75
992.56	16.82
992.984	16.83
993.409	17.12
993.833	16.76
994.257	16.84
994.681	16.91
995.105	17
995.529	17.27
995.953	17.13
996.377	17.15
996.801	17.09
997.225	16.97
997.649	17.49
998.073	17.18
998.497	17.41
998.921	17.15
999.345	17.57
999.769	17.32
1000.192	17.24
1000.616	17.11
1001.04	17.2
1001.464	17.28
1001.887	17.26
1002.311	17.27
1002.734	17.33
1003.158	17.78
1003.582	17.38
1004.005	17.89
1004.429	17.45
1004.852	17.62
1005.275	17.67
1005.699	17.31
1006.122	17.49
1006.546	17.55
1006.969	17.68
1007.392	17.83
1007.815	17.77
1008.239	17.91
1008.662	17.59
1009.085	17.77
1009.508	17.68
1009.931	18.23
1010.354	18.05
1010.778	18.15
1011.201	17.97
1011.624	18.24
1012.047	17.89
1012.469	17.96
1012.892	17.79
1013.315	17.76
1013.738	17.85
1014.161	17.86
1014.584	18.01
1015.007	18.09
1015.429	18.06
1015.852	18.13
1016.275	17.94
1016.697	18.02
1017.12	18.15
1017.543	18.35
1017.965	18.6
1018.388	18.13
1018.81	18.42
1019.233	17.79
1019.655	18.3
1020.078	18.54
1020.5	18.43
1020.922	18.68
1021.345	18.77
1021.767	18.59
1022.189	18.42
1022.612	18.19
1023.034	17.79
1023.456	18.88
1023.878	18.43
1024.301	18.58
1024.723	18.63
1025.145	18.63
1025.567	18.25
1025.989	18.72
1026.411	18.24
1026.833	18.96
1027.255	18.41
1027.677	18.9
1028.099	18.76
1028.52	18.71
1028.942	18.88
1029.364	19.41
1029.786	19.25
1030.208	18.74
1030.629	18.44
1031.051	19.46
1031.473	19.06
1031.894	19.38
1032.316	18.49
1032.738	19.38
1033.159	18.8
1033.581	18.82
1034.002	19.04
1034.424	19.18
1034.845	19.38
1035.267	18.83
1035.688	19.22
1036.109	19.32
1036.531	19.73
1036.952	19
1037.373	19.61
1037.794	19.87
1038.216	19.32
1038.637	19.22
1039.058	19.45
1039.479	19.53
1039.9	19.33
1040.321	19.17
1040.742	19.99
1041.163	19.63
1041.584	19.16
1042.005	19.96
1042.426	19.81
1042.847	19.49
1043.268	20.34
1043.689	19.91
1044.11	19.85
1044.53	19.56
1044.951	19.95
1045.372	20.16
1045.793	19.92
1046.213	20.23
1046.634	19.9
1047.055	19.57
1047.475	19.73
1047.896	20.07
1048.316	19.9
1048.737	20.09
1049.157	19.75
1049.578	20.3
1049.998	20.74
1050.419	19.95
1050.839	19.48
1051.259	20.94
1051.68	20.1
1052.1	20.26
1052.52	20.16
1052.94	20.15
1053.361	20.87
1053.781	20.65
1054.201	20.11
1054.621	20.78
1055.041	19.43
1055.461	20.79
1055.881	20.48
1056.301	19.89
1056.721	20.73
1057.141	20.58
1057.561	20.5
1057.981	20.6
1058.401	20.78
1058.82	20.79
1059.24	20.26
1059.66	21.31
1060.08	20.5
1060.499	20.81
1060.919	21.2
1061.339	19.89
1061.758	20.7
1062.178	21.16
1062.598	21.32
1063.017	21.55
1063.437	20.98
1063.856	21.44
1064.276	20.78
1064.695	21.13
1065.114	20.35
1065.534	20.86
1065.953	20.96
1066.372	20.93
1066.792	21.88
1067.211	21.31
1067.63	22.32
1068.049	21.56
1068.469	22.27
1068.888	21.71
1069.307	21.59
1069.726	21.99
1070.145	21.24
1070.564	20.21
1070.983	21.04
1071.402	23.49
1071.821	21.75
1072.24	21.43
1072.659	22.03
1073.078	21.59
1073.496	21.93
1073.915	22.26
1074.334	21.03
1074.753	21.6
1075.171	21.62
1075.59	21.16
1076.009	21.91
1076.427	21.86
1076.846	22.1
1077.265	21.87
1077.683	21.86
1078.102	23.19
1078.52	21.93
1078.939	21.69
1079.357	22.27
1079.776	22.36
1080.194	23.01
1080.612	23.3
1081.031	22.27
1081.449	21.89
1081.867	22.59
1082.285	21.2
1082.704	22.66
1083.122	21.98
1083.54	23.21
1083.958	22.3
1084.376	22.26
1084.794	23.1
1085.212	23.69
1085.63	23.12
1086.048	22.23
1086.466	22.95
1086.884	23.21
1087.302	22.21
1087.72	24.07
1088.138	20.62
1088.555	22.89
1088.973	22.3
1089.391	22.22
1089.809	23.28
1090.226	22.88
1090.644	23.05
1091.062	23.54
1091.479	23.62
1091.897	23.99
1092.314	23.15
1092.732	22.92
1093.15	22.59
1093.567	22.18
1093.984	24.49
1094.402	24.26
1094.819	22.57
1095.237	23.6
1095.654	23.38
1096.071	24.19
1096.488	24.04
1096.906	23.32
1097.323	23.23
1097.74	24.44
1098.157	22.37
1098.574	26.04
1098.991	23.72
1099.409	25.08
1099.826	25.78
1100.243	24.34
1100.66	25.01
1101.077	22.57
1101.494	24.15
1101.91	23.33
1102.327	24.14
1102.744	24.74
1103.161	25.4
1103.578	21.32
1103.994	25.3
1104.411	24.52
1104.828	24.37
1105.245	26.63
1105.661	24.93
1106.078	23.51
1106.494	27.46
1106.911	27.37
1107.328	25.13
1107.744	26.35
1108.161	24.62
1108.577	26.25
1108.993	27.26
1109.41	26.11
1109.826	26.46
1110.242	24.87
1110.659	24.84
1111.075	26.02
1111.491	27.27
1111.908	27.84
1112.324	26.65
1112.74	26.66
1113.156	25.26
1113.572	24.46
1113.988	26.62
1114.404	24.16
1114.82	29.45
1115.236	27.5
1115.652	29.38
1116.068	23.82
1116.484	31.22
1116.9	27
1117.316	35.57
1117.732	88
1118.147	60.87
1118.563	314.29
1118.979	127.27
