Data from JCR0016_YellowVentral_Reflection_00002.txt Node
Date: Thu Jul 23 15:39:05 ACST 2020
User: Stacey Dix
Spectrometer: MAYP113282
Scans to average: 1
Trigger mode: 0
Integration Time (sec): 1.000000E-1
Electric dark correction enabled: true
Boxcar width: 0
XAxis mode: Wavelengths
Number of Pixels in Spectrum: 2068
>>>>>Begin Spectral Data<<<<<
198.791	-2066.67
199.266	1466.67
199.74	47.62
200.215	-19.05
200.69	18.47
201.164	47.11
201.639	7.51
202.114	56.26
202.588	46.09
203.063	37.09
203.537	49.46
204.012	28.46
204.486	42.69
204.961	54.41
205.435	1.08
205.909	49.82
206.384	41.72
206.858	57.04
207.332	16.81
207.807	27.06
208.281	46.23
208.755	8.41
209.229	7.12
209.703	60.66
210.177	23.36
210.651	57.91
211.126	18.85
211.6	50.61
212.074	38.16
212.548	62.47
213.021	19.39
213.495	40.11
213.969	48.18
214.443	32.04
214.917	47.75
215.391	48.13
215.864	72.12
216.338	54.28
216.812	51.1
217.286	55.39
217.759	43.14
218.233	38.69
218.706	34.3
219.18	46.92
219.654	69.01
220.127	52.07
220.6	43.93
221.074	43.42
221.547	40.4
222.021	51.66
222.494	42.88
222.967	43.08
223.441	62.95
223.914	47.91
224.387	56.3
224.86	69.57
225.334	61.48
225.807	50.25
226.28	47.43
226.753	53.72
227.226	57.12
227.699	63.25
228.172	64.81
228.645	51.3
229.118	54.17
229.591	61.16
230.064	50.79
230.537	59.99
231.01	58.54
231.482	65.1
231.955	59.87
232.428	52.64
232.901	60.58
233.373	56.34
233.846	54.04
234.319	60.08
234.791	52.31
235.264	58.94
235.736	58.6
236.209	48.22
236.681	52.75
237.154	51.84
237.626	58.9
238.099	52.57
238.571	52.94
239.044	55.47
239.516	52.38
239.988	53.73
240.46	51.44
240.933	53.79
241.405	51.52
241.877	49.03
242.349	52.62
242.821	52.26
243.293	48.64
243.765	47.54
244.237	53.3
244.71	50.64
245.181	48.66
245.653	52.65
246.125	46.53
246.597	51.28
247.069	48.59
247.541	47.63
248.013	45.79
248.485	43.79
248.956	43.82
249.428	40.81
249.9	46.12
250.371	44.79
250.843	46.21
251.315	44.09
251.786	44.19
252.258	44.83
252.729	45.57
253.201	45.18
253.672	45.15
254.144	41.03
254.615	45.09
255.086	44.9
255.558	44.48
256.029	44.46
256.5	46.92
256.972	44.09
257.443	43.7
257.914	45.86
258.385	43.29
258.856	42.13
259.327	47.65
259.799	45.26
260.27	45.66
260.741	43.56
261.212	43.92
261.683	44.19
262.154	45.52
262.624	45.27
263.095	42.35
263.566	43.22
264.037	43.65
264.508	46.34
264.979	42.54
265.449	44.44
265.92	41.38
266.391	42.57
266.861	43.05
267.332	44.32
267.803	43.76
268.273	43.56
268.744	45.17
269.214	43.26
269.685	42.78
270.155	41.7
270.626	44.3
271.096	45.87
271.566	45.35
272.037	43.96
272.507	42.7
272.977	44.27
273.448	42.97
273.918	47.43
274.388	44.76
274.858	43.48
275.328	44.51
275.798	42.12
276.268	45.15
276.738	43.91
277.208	45.27
277.678	42.34
278.148	41.94
278.618	42.82
279.088	43.86
279.558	43.19
280.028	42.27
280.498	41.79
280.968	42.35
281.437	41.94
281.907	42.54
282.377	42.93
282.847	41.89
283.316	39.89
283.786	43.69
284.255	42.31
284.725	43.8
285.194	44.44
285.664	43.98
286.133	43.45
286.603	41.07
287.072	41.13
287.542	42.04
288.011	42.59
288.48	44.02
288.95	43.1
289.419	43.01
289.888	40.61
290.357	43.66
290.827	42.24
291.296	42.28
291.765	41.33
292.234	41.63
292.703	41.87
293.172	44.86
293.641	40.53
294.11	41.61
294.579	41.05
295.048	41.02
295.517	40.2
295.986	41.23
296.455	41.67
296.923	38.07
297.392	41.72
297.861	37.4
298.33	39.88
298.798	40.32
299.267	41.86
299.736	39.17
300.204	39.83
300.673	40.59
301.141	38.83
301.61	42
302.079	37.95
302.547	36.55
303.015	38.84
303.484	40.4
303.952	37.59
304.421	37
304.889	35.43
305.357	40.02
305.825	36.98
306.294	39.37
306.762	38.06
307.23	37.43
307.698	37.74
308.166	37.23
308.634	36.54
309.103	37.23
309.571	37.25
310.039	36.15
310.507	35.99
310.975	35.69
311.442	38.47
311.91	36.91
312.378	39.83
312.846	34.55
313.314	35.26
313.782	36.24
314.249	36.63
314.717	36.29
315.185	40
315.652	37.17
316.12	35.42
316.588	36.12
317.055	35.43
317.523	38.21
317.99	35.71
318.458	37.75
318.925	37.31
319.393	35.11
319.86	36.02
320.328	32.89
320.795	34.9
321.262	35.99
321.73	36.18
322.197	36.69
322.664	37.89
323.131	35.05
323.598	35.89
324.066	37.95
324.533	33.73
325	34.69
325.467	38.37
325.934	35.84
326.401	38.73
326.868	38.97
327.335	35.9
327.802	35.53
328.269	36.2
328.735	36.83
329.202	36.79
329.669	39.23
330.136	37.94
330.603	36.68
331.069	40.12
331.536	40.06
332.003	39.8
332.469	39.89
332.936	38.72
333.402	36.3
333.869	39.65
334.336	40.26
334.802	38.19
335.268	39.36
335.735	40
336.201	38.28
336.668	38.89
337.134	40.32
337.6	37.48
338.067	39.76
338.533	33.65
338.999	38.14
339.465	36.9
339.931	34.95
340.398	37.71
340.864	38.47
341.33	35.33
341.796	35.68
342.262	37.54
342.728	35.86
343.194	36.68
343.66	35.68
344.126	36.53
344.592	34.33
345.057	37.77
345.523	38.93
345.989	35.06
346.455	38.34
346.921	36.02
347.386	36.06
347.852	33.67
348.318	34.96
348.783	34.29
349.249	35.67
349.714	35.71
350.18	34.17
350.645	35.6
351.111	33.76
351.576	33.57
352.042	34.16
352.507	34.15
352.973	36.23
353.438	32.44
353.903	33.52
354.369	33.66
354.834	34.82
355.299	33.55
355.764	33.13
356.229	32.79
356.695	33.04
357.16	32.21
357.625	33.06
358.09	31.44
358.555	32.42
359.02	35.76
359.485	31
359.95	31.87
360.415	35.5
360.879	34.61
361.344	33.41
361.809	32.37
362.274	33.9
362.739	31.23
363.203	31.6
363.668	30.34
364.133	32.55
364.597	32.27
365.062	32.28
365.527	31.55
365.991	30.44
366.456	32.08
366.92	32.79
367.385	29.74
367.849	30.5
368.314	31.78
368.778	32.5
369.242	31.73
369.707	31.93
370.171	32.98
370.635	30.87
371.1	29.05
371.564	32.42
372.028	30.83
372.492	31.85
372.956	29.19
373.42	30.1
373.884	31.58
374.348	31.51
374.812	30.29
375.276	29.13
375.74	31.24
376.204	31.12
376.668	30.54
377.132	29.72
377.596	29.43
378.06	27.71
378.524	28.1
378.987	28.67
379.451	29.8
379.915	27.48
380.378	30.6
380.842	29.75
381.306	26.64
381.769	28.68
382.233	31.63
382.696	31.6
383.16	27.31
383.623	28.65
384.087	27.76
384.55	30.77
385.014	26.67
385.477	27
385.94	27.31
386.404	28.12
386.867	28.03
387.33	29.51
387.793	28.22
388.256	28.73
388.72	26.55
389.183	27.42
389.646	29.3
390.109	28.17
390.572	25.81
391.035	28.07
391.498	27.91
391.961	26.65
392.424	29.3
392.887	26.45
393.35	26.13
393.812	29.06
394.275	27.67
394.738	26.87
395.201	26.18
395.664	26.73
396.126	26.59
396.589	26.93
397.052	26.94
397.514	26.03
397.977	25.41
398.439	26.92
398.902	25.77
399.364	28.28
399.827	26.78
400.289	26.58
400.752	26.81
401.214	25.27
401.676	24.24
402.139	25.22
402.601	26.44
403.063	24.74
403.525	23.63
403.988	25.41
404.45	25.93
404.912	24.57
405.374	25.36
405.836	24.53
406.298	26.7
406.76	25.28
407.222	25.05
407.684	25.02
408.146	25.81
408.608	25.05
409.07	25.17
409.532	23.45
409.994	24.1
410.456	23.97
410.917	25.09
411.379	24.38
411.841	24.48
412.303	26.8
412.764	24.78
413.226	24
413.687	25.73
414.149	24.77
414.611	24.07
415.072	23.75
415.534	24.3
415.995	24.96
416.457	25.1
416.918	23.15
417.379	25
417.841	25.21
418.302	23.36
418.763	24.83
419.225	25.1
419.686	22.87
420.147	23.85
420.608	22.15
421.069	24.64
421.53	24.14
421.991	23.49
422.453	23.72
422.914	24.85
423.375	23.58
423.836	23.51
424.297	25.18
424.757	25.16
425.218	22.65
425.679	22.45
426.14	24.97
426.601	25.47
427.062	23.79
427.522	24.61
427.983	23.65
428.444	20.03
428.904	25.67
429.365	23.98
429.826	22.43
430.286	23.07
430.747	26.46
431.207	24.27
431.668	25.53
432.128	23.76
432.589	22.12
433.049	21.8
433.509	20.06
433.97	24.82
434.43	24.17
434.89	24.33
435.351	24.74
435.811	21.8
436.271	24.27
436.731	24.32
437.191	22.95
437.651	24.68
438.112	23.88
438.572	25.84
439.032	23.18
439.492	24.61
439.952	24.13
440.412	23.37
440.871	24.6
441.331	22.26
441.791	25.87
442.251	25.63
442.711	23.81
443.171	23.54
443.63	25.41
444.09	27.14
444.55	22.25
445.009	24.96
445.469	24.51
445.929	24.85
446.388	25.22
446.848	22.98
447.307	24.77
447.767	23.13
448.226	23.67
448.686	22.2
449.145	23.93
449.604	23.26
450.064	24.9
450.523	26.32
450.982	24.78
451.442	23.59
451.901	24.46
452.36	23.12
452.819	25.43
453.278	26.25
453.737	24.98
454.197	24.55
454.656	24.44
455.115	27.45
455.574	23.19
456.033	23.1
456.492	25.79
456.95	26.26
457.409	23.17
457.868	23.74
458.327	29.17
458.786	24.36
459.245	22.98
459.703	25.76
460.162	25.33
460.621	25.36
461.079	27.31
461.538	25.27
461.997	27.56
462.455	24.53
462.914	25.13
463.372	23.57
463.831	23.77
464.289	26.16
464.748	30.13
465.206	27.58
465.664	26.45
466.123	29.43
466.581	26.45
467.039	24.63
467.497	26.71
467.956	25.96
468.414	25.48
468.872	27.98
469.33	26.36
469.788	25.57
470.246	26.72
470.704	27.95
471.162	28.21
471.62	29.43
472.078	30.11
472.536	28.69
472.994	27.32
473.452	25.34
473.91	29.11
474.368	32.92
474.826	27.52
475.283	32.67
475.741	29.37
476.199	30.27
476.656	32.68
477.114	32.14
477.572	34.57
478.029	32.14
478.487	32.56
478.944	32.5
479.402	29.12
479.859	33.81
480.317	33.46
480.774	33.43
481.232	34.58
481.689	34.75
482.146	35.63
482.604	33.74
483.061	34.54
483.518	33.54
483.975	35.85
484.433	33.6
484.89	32.23
485.347	35.63
485.804	35
486.261	37.69
486.718	37.43
487.175	38.45
487.632	39.92
488.089	40.65
488.546	37.76
489.003	39.49
489.46	41.33
489.917	42.53
490.373	41.96
490.83	39.49
491.287	43.77
491.744	42.84
492.2	43.5
492.657	42.32
493.114	43.25
493.57	40.84
494.027	43.62
494.484	42.65
494.94	41.46
495.397	43.96
495.853	44.16
496.31	43.41
496.766	40.07
497.222	44.26
497.679	44.14
498.135	46.89
498.591	45.13
499.048	42.34
499.504	42.97
499.96	43.49
500.416	42.87
500.872	45.64
501.329	46.77
501.785	47.32
502.241	45.97
502.697	46.33
503.153	46.05
503.609	42.2
504.065	45.52
504.521	47.09
504.977	46.56
505.432	48.47
505.888	47.37
506.344	47.66
506.8	44.22
507.256	47.19
507.711	49.81
508.167	49.67
508.623	46.32
509.078	45.19
509.534	52.53
509.99	47.84
510.445	48.38
510.901	44.66
511.356	49.2
511.812	48.38
512.267	45.07
512.722	47.15
513.178	47.04
513.633	46.89
514.089	48.2
514.544	51.56
514.999	47.79
515.454	48.44
515.91	47.4
516.365	49.73
516.82	46.12
517.275	47.55
517.73	49.14
518.185	46.38
518.64	47.62
519.095	47.13
519.55	47.76
520.005	46.68
520.46	48.19
520.915	48.41
521.37	47.65
521.825	48.39
522.28	47.85
522.734	47.83
523.189	49.33
523.644	48.17
524.099	46.16
524.553	48.82
525.008	44.76
525.462	49.74
525.917	45.87
526.372	43.95
526.826	48.6
527.281	50.57
527.735	49.54
528.19	48.86
528.644	46.86
529.098	47.62
529.553	46.96
530.007	50.03
530.461	50.03
530.916	47.77
531.37	49.56
531.824	49.66
532.278	47.02
532.732	46.95
533.186	47.28
533.641	50.19
534.095	45.94
534.549	48.81
535.003	47.08
535.457	50.73
535.911	45.91
536.365	49.09
536.818	47.06
537.272	49.95
537.726	49.07
538.18	46.68
538.634	45.94
539.087	46.96
539.541	48.51
539.995	49.14
540.449	49.42
540.902	47.69
541.356	48.33
541.809	50.07
542.263	46.18
542.716	47.88
543.17	49.87
543.623	45.8
544.077	50.45
544.53	49.46
544.984	51.56
545.437	49.37
545.89	50.2
546.344	48.48
546.797	47.71
547.25	47.03
547.703	47.81
548.157	49.16
548.61	48.59
549.063	48.16
549.516	49.4
549.969	50.35
550.422	49.96
550.875	48.36
551.328	49.3
551.781	46.31
552.234	48.41
552.687	48.71
553.14	49
553.592	51
554.045	49.07
554.498	49.71
554.951	49.35
555.404	50.44
555.856	47.39
556.309	51.39
556.762	52.96
557.214	51.19
557.667	51.22
558.119	49.7
558.572	51.7
559.024	53.3
559.477	50.31
559.929	52.37
560.382	49.63
560.834	47.68
561.286	50.6
561.739	50.29
562.191	48.29
562.643	51.03
563.095	49.44
563.548	52.39
564	50.8
564.452	51.88
564.904	51.19
565.356	51.94
565.808	50.49
566.26	52.5
566.712	48.21
567.164	51.4
567.616	49.05
568.068	49.37
568.52	48.73
568.972	48.71
569.424	51.01
569.876	52.14
570.327	50.1
570.779	50.23
571.231	48.71
571.682	50.63
572.134	49.05
572.586	50.1
573.037	52.49
573.489	49.97
573.941	52.43
574.392	48.26
574.844	49.4
575.295	51.72
575.746	50.32
576.198	50.49
576.649	50.93
577.101	50.17
577.552	49.01
578.003	47.25
578.454	50.61
578.906	50.07
579.357	48.42
579.808	51.32
580.259	50.29
580.71	47.98
581.161	50.07
581.612	48.43
582.064	50
582.515	51.32
582.965	49.25
583.416	50.05
583.867	51.06
584.318	49.73
584.769	51.63
585.22	49.27
585.671	48.51
586.122	50.56
586.572	50.63
587.023	52.72
587.474	51.64
587.924	51.05
588.375	52.84
588.826	50.81
589.276	52.26
589.727	52.66
590.177	52.08
590.628	54.59
591.078	51.41
591.529	50.69
591.979	53.13
592.429	52.58
592.88	50.56
593.33	54.37
593.78	54.19
594.231	50.7
594.681	53.21
595.131	51.76
595.581	52.42
596.031	52.84
596.481	51.45
596.932	51.12
597.382	53.85
597.832	50.35
598.282	53.29
598.732	51.82
599.182	52.92
599.632	51.57
600.081	52.2
600.531	52.44
600.981	54.13
601.431	52.25
601.881	53.73
602.33	52.72
602.78	52.86
603.23	51.66
603.679	52.91
604.129	49.7
604.579	50.28
605.028	52.95
605.478	51.28
605.927	54.52
606.377	50.6
606.826	55.02
607.276	52.49
607.725	52.9
608.175	53.02
608.624	52.49
609.073	51.75
609.522	51.71
609.972	52.82
610.421	54.98
610.87	54.64
611.319	52.15
611.768	54.26
612.218	54.06
612.667	51.96
613.116	52.04
613.565	52.56
614.014	50.99
614.463	53.01
614.912	51.86
615.361	52.33
615.81	53.4
616.258	54.97
616.707	52.5
617.156	52.47
617.605	54.17
618.054	51.8
618.502	54.45
618.951	52.72
619.4	52.46
619.848	53.9
620.297	53.36
620.745	52.55
621.194	51.99
621.642	53.24
622.091	52.01
622.539	53.67
622.988	51.05
623.436	52.16
623.885	50.6
624.333	53.32
624.781	52.87
625.23	53.96
625.678	51.07
626.126	52.49
626.574	53.87
627.022	55.35
627.471	52.98
627.919	51.67
628.367	53.15
628.815	50.46
629.263	50.95
629.711	53.69
630.159	51.06
630.607	52.85
631.055	53.16
631.503	53.26
631.95	54.6
632.398	53.96
632.846	51.81
633.294	52.89
633.742	51.35
634.189	53.48
634.637	53
635.085	53.33
635.532	53.21
635.98	51.73
636.427	52.87
636.875	53.43
637.323	50.43
637.77	51.03
638.217	53.29
638.665	52.53
639.112	52.48
639.56	53.76
640.007	53.41
640.454	52.79
640.902	52.94
641.349	53.55
641.796	51.5
642.243	54.6
642.69	52.44
643.138	52.68
643.585	52.96
644.032	53.52
644.479	53.16
644.926	53.24
645.373	50.41
645.82	52.17
646.267	53.83
646.714	53.36
647.161	53.01
647.607	53.04
648.054	51.82
648.501	53.37
648.948	51.57
649.395	51.19
649.841	52.32
650.288	52.92
650.735	53.99
651.181	51.81
651.628	51.68
652.075	51.39
652.521	52.82
652.968	53.2
653.414	52.4
653.861	53.48
654.307	52.27
654.753	52.99
655.2	53.37
655.646	51.82
656.092	51.87
656.539	53.6
656.985	53.16
657.431	53.02
657.877	52.21
658.324	52.87
658.77	51.73
659.216	52.16
659.662	51.67
660.108	52.13
660.554	52.28
661	50.69
661.446	50.09
661.892	53.73
662.338	54.98
662.784	52.62
663.23	52.09
663.675	52.29
664.121	53.21
664.567	52.7
665.013	53.04
665.458	52.54
665.904	53.78
666.35	50.82
666.795	52.42
667.241	52.54
667.687	51.92
668.132	51.12
668.578	51.43
669.023	52
669.469	53.22
669.914	53.28
670.359	51.96
670.805	52.86
671.25	51.94
671.695	53.65
672.141	51.15
672.586	53.14
673.031	52.96
673.476	52.18
673.922	51.32
674.367	51.92
674.812	51.07
675.257	52.95
675.702	52.14
676.147	52.97
676.592	52.31
677.037	52.09
677.482	52.62
677.927	52.49
678.372	53.59
678.817	51.11
679.261	51.88
679.706	52.96
680.151	52.99
680.596	51.62
681.04	51.68
681.485	51.97
681.93	52.24
682.374	52.16
682.819	51.05
683.264	51.53
683.708	52.95
684.153	53.64
684.597	53.86
685.042	52.13
685.486	51.94
685.93	51.48
686.375	52.77
686.819	51.74
687.263	51.15
687.708	52.49
688.152	52.57
688.596	50.65
689.04	52.75
689.485	51.48
689.929	52.41
690.373	52.16
690.817	51.35
691.261	50.83
691.705	50.89
692.149	51.55
692.593	52.64
693.037	50.98
693.481	52.13
693.925	52.28
694.369	52.25
694.812	51.25
695.256	52
695.7	52.56
696.144	52.11
696.587	50.57
697.031	52.34
697.475	50.37
697.918	52.59
698.362	52.01
698.806	51.82
699.249	51.6
699.693	51.59
700.136	50.7
700.58	51.09
701.023	51.25
701.466	52.49
701.91	51.41
702.353	52.3
702.796	51.17
703.24	50.21
703.683	50.71
704.126	51.53
704.569	52.23
705.013	50.63
705.456	51.31
705.899	52.12
706.342	52.39
706.785	50.86
707.228	53.78
707.671	50.1
708.114	51.6
708.557	52.01
709	51.53
709.443	50.25
709.886	50.82
710.328	51.74
710.771	51.03
711.214	51.6
711.657	51.67
712.099	51.55
712.542	50.77
712.985	51.29
713.427	51.36
713.87	51.19
714.313	51.54
714.755	52.04
715.198	52.03
715.64	51.42
716.083	52.26
716.525	51.35
716.967	50.88
717.41	52.46
717.852	50.36
718.295	51.54
718.737	50.69
719.179	52.32
719.621	52.03
720.063	50.12
720.506	52.48
720.948	50.72
721.39	51.71
721.832	51.08
722.274	50.9
722.716	50.62
723.158	52.4
723.6	50.94
724.042	50.75
724.484	50.9
724.926	51.71
725.368	50.03
725.81	51.2
726.251	51.29
726.693	50.62
727.135	51.83
727.577	51.1
728.018	51.16
728.46	50.23
728.902	49.24
729.343	50.31
729.785	50.19
730.226	50.98
730.668	50.87
731.109	49.78
731.551	50.76
731.992	49.98
732.434	51.63
732.875	49.81
733.316	51.34
733.758	50.62
734.199	49.89
734.64	50.67
735.081	50.78
735.523	48.96
735.964	51.27
736.405	48.83
736.846	50.31
737.287	50.27
737.728	48.18
738.169	49.85
738.61	49.64
739.051	50.75
739.492	51.39
739.933	51.75
740.374	50.32
740.815	51.03
741.256	49.5
741.696	50.53
742.137	51.3
742.578	52.09
743.019	49.58
743.459	52.01
743.9	50.22
744.341	50.76
744.781	50.97
745.222	50.34
745.662	50.79
746.103	51.97
746.543	50.31
746.984	50.69
747.424	49.86
747.865	50.3
748.305	50.8
748.745	49.96
749.186	49.68
749.626	50.5
750.066	50.14
750.506	50.61
750.947	49.84
751.387	51.01
751.827	50.36
752.267	50.58
752.707	50.11
753.147	49.06
753.587	51.04
754.027	50.22
754.467	50.97
754.907	50.06
755.347	49.16
755.787	49.95
756.227	51.04
756.667	49.7
757.107	49.28
757.546	50.16
757.986	49.1
758.426	50.08
758.865	49.62
759.305	50.42
759.745	50.19
760.184	50.57
760.624	49.52
761.063	50.18
761.503	49.36
761.943	49.68
762.382	51.07
762.821	48.46
763.261	49.13
763.7	49.71
764.14	51.75
764.579	50.26
765.018	50.15
765.457	50.53
765.897	49.48
766.336	50.57
766.775	51.11
767.214	50.77
767.653	49.56
768.092	50.36
768.531	48.91
768.97	49.76
769.409	49.34
769.848	50.35
770.287	50.26
770.726	49.92
771.165	49.31
771.604	49.51
772.043	49.19
772.482	49.62
772.92	49.29
773.359	49.84
773.798	49.53
774.237	49.84
774.675	49.18
775.114	50.23
775.553	49.09
775.991	49.38
776.43	51.2
776.868	50.69
777.307	50.02
777.745	50.34
778.184	49.45
778.622	50.66
779.06	49.53
779.499	49.27
779.937	48.82
780.375	50.77
780.814	47.94
781.252	50
781.69	49.7
782.128	49.82
782.566	49.43
783.004	49.81
783.443	48.83
783.881	48.92
784.319	50.46
784.757	50.06
785.195	49.27
785.633	50.61
786.071	50.52
786.508	49.82
786.946	48.58
787.384	49.31
787.822	50.3
788.26	49.9
788.697	50.15
789.135	50.33
789.573	49.59
790.011	48.62
790.448	48.35
790.886	48.81
791.323	49.78
791.761	49.77
792.198	48.99
792.636	49.05
793.073	49.55
793.511	48.18
793.948	50.46
794.386	49.68
794.823	50.28
795.26	50.14
795.698	49.22
796.135	48.94
796.572	48.91
797.009	49.99
797.446	50.09
797.884	50.85
798.321	50.6
798.758	49.79
799.195	49.06
799.632	49.38
800.069	47.96
800.506	48.86
800.943	49.23
801.38	48.96
801.817	49.09
802.254	48.72
802.69	49.98
803.127	49.76
803.564	48.82
804.001	48.36
804.438	49.25
804.874	48.88
805.311	50.18
805.748	51.35
806.184	48.99
806.621	49.73
807.057	49.9
807.494	49.04
807.93	48.42
808.367	48.56
808.803	49
809.24	48.97
809.676	48.49
810.112	49.17
810.549	48.98
810.985	49.14
811.421	49.66
811.857	49.85
812.294	50.08
812.73	49.06
813.166	49.35
813.602	49.95
814.038	48.17
814.474	48.91
814.91	49.33
815.346	48.95
815.782	48.45
816.218	49.5
816.654	48.99
817.09	49.6
817.526	48.79
817.962	49.95
818.398	48.85
818.833	48.55
819.269	49.45
819.705	49.17
820.141	49.37
820.576	49.57
821.012	48.14
821.447	49.08
821.883	49.51
822.319	48.93
822.754	49.34
823.19	48.77
823.625	49.17
824.061	47.77
824.496	48.86
824.931	48.57
825.367	49.47
825.802	49.29
826.237	48.42
826.673	49.49
827.108	49.06
827.543	48.72
827.978	49.02
828.413	49.64
828.849	48.5
829.284	48.97
829.719	48.39
830.154	48.71
830.589	49.46
831.024	48.3
831.459	49.24
831.894	49.45
832.329	48.16
832.763	49.02
833.198	48.4
833.633	49.11
834.068	48.01
834.503	48.6
834.937	49.16
835.372	48.6
835.807	49.51
836.241	48.31
836.676	49.14
837.111	48.3
837.545	49.2
837.98	48.54
838.414	48.45
838.849	48.77
839.283	48.36
839.717	49.08
840.152	48.69
840.586	49.03
841.021	48.08
841.455	50.16
841.889	49.34
842.323	48.72
842.758	48.83
843.192	48.05
843.626	48.62
844.06	49.29
844.494	49.3
844.928	49.31
845.362	48.73
845.796	48.53
846.23	49.82
846.664	48.09
847.098	49.19
847.532	50.01
847.966	48.88
848.4	48.84
848.834	48.2
849.267	47.64
849.701	48.47
850.135	48.78
850.569	48.75
851.002	48.34
851.436	49.56
851.87	48.11
852.303	48.77
852.737	48.33
853.17	49.45
853.604	48.91
854.037	48.85
854.471	48.68
854.904	48.37
855.337	48.28
855.771	49.01
856.204	47.73
856.637	48.27
857.071	48.27
857.504	48.36
857.937	48.85
858.37	48.89
858.804	49.19
859.237	48.63
859.67	48.68
860.103	47.83
860.536	48.58
860.969	49.05
861.402	49.11
861.835	48.53
862.268	48.67
862.701	48.19
863.134	48.33
863.566	47.86
863.999	49.46
864.432	49.36
864.865	48.1
865.298	48.76
865.73	47.32
866.163	47.22
866.596	47.89
867.028	48.48
867.461	48.92
867.893	47.45
868.326	48.71
868.758	47.84
869.191	48.61
869.623	48.96
870.056	47.97
870.488	47.5
870.92	48.53
871.353	48.09
871.785	48.31
872.217	48.59
872.65	49.67
873.082	48.4
873.514	48.49
873.946	48.92
874.378	49.15
874.81	47.65
875.243	49.16
875.675	47.56
876.107	48.56
876.539	47.95
876.971	48.44
877.403	47.93
877.834	48.36
878.266	47.91
878.698	48
879.13	48.44
879.562	48.73
879.994	47.82
880.425	48.26
880.857	48.48
881.289	48.93
881.72	47.71
882.152	48.52
882.584	48.08
883.015	48.36
883.447	48.21
883.878	48.67
884.31	48.39
884.741	48.46
885.173	48.27
885.604	47.86
886.035	47.67
886.467	48.72
886.898	47.86
887.329	48.61
887.76	48.32
888.192	48.4
888.623	48.31
889.054	48.27
889.485	47.4
889.916	47.61
890.347	48.41
890.778	47.39
891.209	48.59
891.64	47.98
892.071	47.88
892.502	47.77
892.933	48.38
893.364	47.25
893.795	48.36
894.226	48.3
894.657	47.13
895.087	47.88
895.518	48.98
895.949	48.35
896.38	48.69
896.81	47.65
897.241	48.07
897.671	48.3
898.102	48.87
898.533	47.84
898.963	48.05
899.394	48.35
899.824	48.61
900.254	47.21
900.685	47.47
901.115	48.94
901.546	47.34
901.976	48.15
902.406	47.52
902.836	48.03
903.267	47.75
903.697	47.4
904.127	47.86
904.557	47.86
904.987	48.08
905.417	47.6
905.847	48.39
906.277	48.27
906.707	48.58
907.137	48.25
907.567	48.28
907.997	47.46
908.427	48.37
908.857	48.19
909.287	47.99
909.717	48.26
910.146	47.94
910.576	47.95
911.006	47.56
911.436	48.13
911.865	48.22
912.295	47.74
912.724	48.05
913.154	47.35
913.584	48.33
914.013	47.21
914.443	48.29
914.872	48.31
915.302	47.33
915.731	47.34
916.16	48.3
916.59	47.69
917.019	47.95
917.448	47.78
917.878	48.58
918.307	48.38
918.736	48.03
919.165	48.17
919.594	47.04
920.023	47.55
920.452	48.01
920.882	48
921.311	47.49
921.74	47.68
922.169	47.4
922.597	47.43
923.026	47.36
923.455	47.75
923.884	47.42
924.313	48.19
924.742	47.65
925.171	47.58
925.599	47.81
926.028	47.22
926.457	47.65
926.885	46.8
927.314	47.75
927.743	47.52
928.171	47.05
928.6	47.28
929.028	48.23
929.457	48.13
929.885	47.83
930.314	47.47
930.742	48.12
931.17	47.33
931.599	47.55
932.027	47.49
932.455	47.45
932.884	47.33
933.312	47.58
933.74	47.95
934.168	47.26
934.596	46.58
935.025	47.51
935.453	48.6
935.881	47.5
936.309	46.62
936.737	47.68
937.165	47.12
937.593	47.43
938.021	47.31
938.449	46.86
938.876	47.24
939.304	47.27
939.732	46.66
940.16	47.78
940.588	46.38
941.015	47.57
941.443	47.57
941.871	46.63
942.298	47.14
942.726	46.57
943.154	46.87
943.581	47.71
944.009	47.7
944.436	46.53
944.864	48.13
945.291	47.96
945.718	46.18
946.146	47.04
946.573	47.43
947.001	47.61
947.428	47.78
947.855	46.46
948.282	47.4
948.71	47.98
949.137	47.12
949.564	46.61
949.991	47.07
950.418	47.51
950.845	47.39
951.272	47.16
951.699	46.49
952.126	47.27
952.553	47.47
952.98	46.76
953.407	46.72
953.834	47.74
954.261	46.83
954.688	48.2
955.114	47.21
955.541	47.13
955.968	47.02
956.395	47.65
956.821	45.93
957.248	47.25
957.674	47.31
958.101	46.83
958.528	46.7
958.954	47.28
959.381	47.34
959.807	46.73
960.234	47.89
960.66	47.03
961.086	46.89
961.513	47.67
961.939	47.16
962.365	46.79
962.792	47.12
963.218	47.04
963.644	47.04
964.07	46.82
964.496	47.26
964.923	46.93
965.349	46.82
965.775	46.93
966.201	46.91
966.627	46.9
967.053	46.75
967.479	46.74
967.905	46.25
968.331	47.13
968.756	46.79
969.182	46.71
969.608	46.78
970.034	46.61
970.46	46.81
970.885	46.79
971.311	47.52
971.737	46.78
972.162	47.43
972.588	46.88
973.014	46.96
973.439	47.08
973.865	47.1
974.29	46.41
974.716	47.17
975.141	46.87
975.567	46.73
975.992	47.11
976.417	47.06
976.843	46.82
977.268	47.78
977.693	47.3
978.119	46.71
978.544	46.77
978.969	46.79
979.394	46.68
979.819	47.15
980.244	46.3
980.669	46.39
981.095	45.85
981.52	46.8
981.945	46.14
982.369	46.25
982.794	46.57
983.219	47.32
983.644	46.09
984.069	46.76
984.494	46.61
984.919	46.74
985.343	46.77
985.768	46.75
986.193	47.13
986.618	46.52
987.042	45.9
987.467	46.76
987.891	46.52
988.316	46.3
988.741	46.55
989.165	46.29
989.59	46.87
990.014	46.6
990.438	46.54
990.863	46.05
991.287	46.1
991.712	46.61
992.136	47.31
992.56	46.5
992.984	45.77
993.409	46.46
993.833	46.18
994.257	46.75
994.681	45.91
995.105	46.09
995.529	46.18
995.953	46.5
996.377	46.73
996.801	46.57
997.225	46.47
997.649	47.12
998.073	46.62
998.497	46.4
998.921	46.62
999.345	47.08
999.769	47.03
1000.192	46.85
1000.616	47.15
1001.04	46.93
1001.464	46.56
1001.887	46.67
1002.311	46.41
1002.734	46.58
1003.158	46.91
1003.582	46.76
1004.005	46.88
1004.429	46.62
1004.852	47.08
1005.275	46.01
1005.699	46.24
1006.122	46.82
1006.546	46.81
1006.969	46.98
1007.392	46.86
1007.815	46.93
1008.239	46.58
1008.662	46.77
1009.085	46.82
1009.508	46.6
1009.931	46.63
1010.354	46.48
1010.778	46.81
1011.201	46.96
1011.624	46.7
1012.047	46.46
1012.469	47.12
1012.892	46.51
1013.315	46.53
1013.738	46.75
1014.161	45.91
1014.584	46.58
1015.007	47.35
1015.429	46.43
1015.852	46.61
1016.275	46.92
1016.697	46.33
1017.12	47.9
1017.543	46.32
1017.965	47.36
1018.388	47.19
1018.81	47.1
1019.233	46.07
1019.655	46.97
1020.078	46.48
1020.5	45.96
1020.922	47.01
1021.345	46.86
1021.767	47.27
1022.189	46.43
1022.612	46.54
1023.034	47.12
1023.456	46.56
1023.878	46.51
1024.301	46.53
1024.723	46.31
1025.145	47.34
1025.567	46.2
1025.989	46.99
1026.411	46.96
1026.833	46.82
1027.255	47.03
1027.677	46.58
1028.099	46.41
1028.52	46.61
1028.942	46.61
1029.364	45.8
1029.786	47.26
1030.208	46.53
1030.629	46.04
1031.051	46.45
1031.473	46.73
1031.894	46.61
1032.316	46.54
1032.738	47.32
1033.159	46.98
1033.581	45.9
1034.002	45.88
1034.424	45.65
1034.845	46.03
1035.267	46.78
1035.688	46.52
1036.109	46.51
1036.531	46.01
1036.952	46.5
1037.373	46.39
1037.794	46.03
1038.216	46.64
1038.637	46.31
1039.058	45.86
1039.479	46.73
1039.9	47
1040.321	46.56
1040.742	46.26
1041.163	46.77
1041.584	46.32
1042.005	46.08
1042.426	46.64
1042.847	47.02
1043.268	46.09
1043.689	46.55
1044.11	46.45
1044.53	46.59
1044.951	47
1045.372	47.65
1045.793	47.78
1046.213	45.88
1046.634	47.16
1047.055	45.89
1047.475	46
1047.896	46.48
1048.316	47.13
1048.737	46.52
1049.157	46.47
1049.578	46.49
1049.998	47.08
1050.419	45.89
1050.839	46.96
1051.259	45.49
1051.68	46.71
1052.1	46.22
1052.52	47
1052.94	46.03
1053.361	46.83
1053.781	46.34
1054.201	46
1054.621	45.86
1055.041	46.67
1055.461	46.74
1055.881	46.37
1056.301	46.37
1056.721	45.69
1057.141	45.21
1057.561	45.77
1057.981	46.18
1058.401	47.33
1058.82	45.82
1059.24	46.75
1059.66	46.15
1060.08	46.95
1060.499	45.83
1060.919	45.56
1061.339	45.09
1061.758	45.76
1062.178	45.57
1062.598	45.74
1063.017	47.25
1063.437	45.55
1063.856	47.44
1064.276	45.48
1064.695	45.41
1065.114	45.22
1065.534	46.22
1065.953	46.66
1066.372	46.04
1066.792	46.36
1067.211	46.68
1067.63	44.82
1068.049	45.72
1068.469	45.69
1068.888	46.87
1069.307	46.42
1069.726	45.62
1070.145	44.95
1070.564	45.06
1070.983	46.86
1071.402	46.81
1071.821	47.23
1072.24	46.3
1072.659	44.8
1073.078	45.54
1073.496	46.06
1073.915	44.87
1074.334	45.56
1074.753	44.66
1075.171	45.47
1075.59	45.64
1076.009	45.82
1076.427	45.47
1076.846	46.21
1077.265	45.2
1077.683	43.87
1078.102	47.11
1078.52	45.83
1078.939	46.13
1079.357	45
1079.776	46.75
1080.194	46.5
1080.612	44.91
1081.031	44.61
1081.449	45.68
1081.867	45.02
1082.285	45.35
1082.704	46.95
1083.122	44.17
1083.54	46.79
1083.958	44.65
1084.376	46.01
1084.794	43.05
1085.212	44.1
1085.63	45.06
1086.048	45.81
1086.466	45.75
1086.884	45.36
1087.302	44.27
1087.72	44.63
1088.138	45.23
1088.555	44.83
1088.973	44.72
1089.391	45.57
1089.809	44
1090.226	44.79
1090.644	44.48
1091.062	45.08
1091.479	44.36
1091.897	45.71
1092.314	45.79
1092.732	44.48
1093.15	45.25
1093.567	43.45
1093.984	44.76
1094.402	44.7
1094.819	43.16
1095.237	44.71
1095.654	42.16
1096.071	43.09
1096.488	44.75
1096.906	42.89
1097.323	46.06
1097.74	43.66
1098.157	44.21
1098.574	42.57
1098.991	44.11
1099.409	43.23
1099.826	43.01
1100.243	43.5
1100.66	45.91
1101.077	42.12
1101.494	45.99
1101.91	45.2
1102.327	43.55
1102.744	43.03
1103.161	43.43
1103.578	42.66
1103.994	46.44
1104.411	43.55
1104.828	42.6
1105.245	42.65
1105.661	42.76
1106.078	46.84
1106.494	43.04
1106.911	44.42
1107.328	43.56
1107.744	45.31
1108.161	44.59
1108.577	45.45
1108.993	39.74
1109.41	41.68
1109.826	40.83
1110.242	38.35
1110.659	42.71
1111.075	42.05
1111.491	44.36
1111.908	41.24
1112.324	44.85
1112.74	36.46
1113.156	43.24
1113.572	39.32
1113.988	37.74
1114.404	42.57
1114.82	37.94
1115.236	42.41
1115.652	38
1116.068	36.87
1116.484	40.42
1116.9	37.19
1117.316	45.74
1117.732	-133.33
1118.147	-51.85
1118.563	42.42
1118.979	-51.85
