Data from JCR0035_WhiteVentral_Reflection_00001.txt Node
Date: Fri Jul 31 15:50:11 ACST 2020
User: Stacey Dix
Spectrometer: MAYP113282
Scans to average: 1
Trigger mode: 0
Integration Time (sec): 1.000000E-1
Electric dark correction enabled: true
Boxcar width: 0
XAxis mode: Wavelengths
Number of Pixels in Spectrum: 2068
>>>>>Begin Spectral Data<<<<<
198.791	537.5
199.266	-25
199.74	50
200.215	-175
200.69	-17.88
201.164	19.46
201.639	27.3
202.114	31
202.588	41.61
203.063	-4.55
203.537	17.49
204.012	16.99
204.486	16.51
204.961	-0.23
205.435	3.47
205.909	5.71
206.384	-60.32
206.858	44.98
207.332	37.3
207.807	40.87
208.281	5.28
208.755	34.95
209.229	30.78
209.703	5.64
210.177	18.3
210.651	43.8
211.126	24.66
211.6	29.47
212.074	6.89
212.548	17.86
213.021	25.87
213.495	24.16
213.969	22.42
214.443	11.82
214.917	14.94
215.391	38.49
215.864	24.27
216.338	19.39
216.812	5.86
217.286	17.4
217.759	27.03
218.233	16
218.706	17.48
219.18	21.5
219.654	10.7
220.127	21.58
220.6	34.43
221.074	12.57
221.547	26.73
222.021	17.82
222.494	6.61
222.967	10.83
223.441	19.27
223.914	17.71
224.387	13.31
224.86	19.69
225.334	13.72
225.807	17.75
226.28	4.16
226.753	12.31
227.226	12.44
227.699	12.97
228.172	10.9
228.645	7.03
229.118	14.16
229.591	9.37
230.064	11.46
230.537	9.14
231.01	10.43
231.482	12.26
231.955	11.34
232.428	8.55
232.901	10.12
233.373	8.75
233.846	10.39
234.319	10.83
234.791	9.52
235.264	9.44
235.736	10.12
236.209	9.44
236.681	11.52
237.154	9.61
237.626	10.53
238.099	8.03
238.571	9.13
239.044	11.15
239.516	9.76
239.988	10.5
240.46	9.62
240.933	8.85
241.405	9.76
241.877	9
242.349	9.81
242.821	10.14
243.293	10.69
243.765	10.11
244.237	8.34
244.71	9.82
245.181	8.88
245.653	10.28
246.125	9.68
246.597	9.34
247.069	9.9
247.541	9.04
248.013	10.49
248.485	9.29
248.956	8.07
249.428	9.54
249.9	8.84
250.371	9.61
250.843	8.97
251.315	9.26
251.786	9.02
252.258	9.46
252.729	8.49
253.201	8.63
253.672	8.01
254.144	8.62
254.615	8.05
255.086	8.03
255.558	8.11
256.029	8.65
256.5	9.32
256.972	8.36
257.443	8.86
257.914	7.67
258.385	8.3
258.856	8.11
259.327	8.43
259.799	8.59
260.27	7.31
260.741	8.82
261.212	8.32
261.683	7.55
262.154	8.19
262.624	8.99
263.095	8.08
263.566	8.17
264.037	8.03
264.508	8.52
264.979	7.62
265.449	8.33
265.92	8.07
266.391	7.24
266.861	8.59
267.332	8.18
267.803	8.31
268.273	8.44
268.744	8.39
269.214	8.24
269.685	6.95
270.155	7.58
270.626	7.65
271.096	8.09
271.566	8.06
272.037	8.03
272.507	8.22
272.977	8.88
273.448	7.74
273.918	7.71
274.388	7.6
274.858	7.19
275.328	7.35
275.798	8.14
276.268	7.15
276.738	6.75
277.208	7.81
277.678	8.11
278.148	8.23
278.618	7.91
279.088	8.5
279.558	7.66
280.028	6.95
280.498	7.48
280.968	7.84
281.437	7.04
281.907	7.5
282.377	7.11
282.847	7.65
283.316	7.87
283.786	8.36
284.255	7.04
284.725	7.52
285.194	8.32
285.664	7.4
286.133	8.22
286.603	6.61
287.072	7.55
287.542	7.7
288.011	7.74
288.48	7.26
288.95	7.5
289.419	7.72
289.888	8.08
290.357	7.99
290.827	7.42
291.296	7.15
291.765	7.39
292.234	7.9
292.703	7.88
293.172	7.6
293.641	6.3
294.11	8.08
294.579	7.57
295.048	7.12
295.517	8.45
295.986	7.97
296.455	7.49
296.923	8.18
297.392	6.75
297.861	7.57
298.33	7.86
298.798	8.63
299.267	7.26
299.736	8.45
300.204	7.64
300.673	8.08
301.141	7.47
301.61	8.5
302.079	8.54
302.547	6.66
303.015	7.13
303.484	8.28
303.952	7.87
304.421	6.86
304.889	7.5
305.357	7.3
305.825	7.13
306.294	7.51
306.762	7.55
307.23	7.13
307.698	7.16
308.166	7.35
308.634	7.44
309.103	7.25
309.571	6.9
310.039	7.32
310.507	7.78
310.975	7.4
311.442	7.7
311.91	6.83
312.378	8.3
312.846	6.89
313.314	7.32
313.782	8.39
314.249	9.29
314.717	7.76
315.185	8.54
315.652	8.76
316.12	8.05
316.588	8.27
317.055	8.66
317.523	7.37
317.99	8.51
318.458	9.05
318.925	7.92
319.393	8.04
319.86	8.09
320.328	8.7
320.795	9.42
321.262	9.76
321.73	7.16
322.197	9.7
322.664	9.62
323.131	11.16
323.598	10.61
324.066	11.61
324.533	11.55
325	12.45
325.467	13.99
325.934	14.02
326.401	16.24
326.868	15.95
327.335	16.46
327.802	17.45
328.269	17.55
328.735	19.02
329.202	20.6
329.669	20.09
330.136	20.63
330.603	22.82
331.069	23.08
331.536	24.22
332.003	25.13
332.469	23.58
332.936	25.33
333.402	24.15
333.869	25.19
334.336	26.4
334.802	27.25
335.268	25.44
335.735	25.8
336.201	27.62
336.668	25.9
337.134	26.42
337.6	26.21
338.067	26.37
338.533	25.72
338.999	24.52
339.465	26.47
339.931	26.03
340.398	28.74
340.864	25.72
341.33	27
341.796	25.7
342.262	26.93
342.728	27.61
343.194	26.17
343.66	26.11
344.126	26.68
344.592	24.79
345.057	25.7
345.523	25.87
345.989	26.32
346.455	25.68
346.921	26.22
347.386	26.16
347.852	25.62
348.318	27.4
348.783	25.74
349.249	25.87
349.714	26.13
350.18	27.27
350.645	26.95
351.111	26.65
351.576	27.35
352.042	27.52
352.507	26.01
352.973	26.55
353.438	27.03
353.903	27.99
354.369	27.16
354.834	27.28
355.299	26.83
355.764	28.96
356.229	27.79
356.695	27.28
357.16	26.96
357.625	28.26
358.09	28.65
358.555	28.37
359.02	28.42
359.485	26.48
359.95	27.93
360.415	26.51
360.879	29.27
361.344	28.72
361.809	27.32
362.274	26.61
362.739	27.58
363.203	27.97
363.668	26.79
364.133	29.96
364.597	29.1
365.062	27.41
365.527	29.68
365.991	27.3
366.456	29.26
366.92	29.09
367.385	29.14
367.849	29.14
368.314	28.69
368.778	29.89
369.242	29.3
369.707	29.04
370.171	31.42
370.635	30.44
371.1	29.25
371.564	30.45
372.028	30.76
372.492	29.43
372.956	31.1
373.42	33.6
373.884	29.63
374.348	29.4
374.812	30.85
375.276	32.89
375.74	33.56
376.204	32.47
376.668	31.74
377.132	32.86
377.596	32.44
378.06	31.85
378.524	32.13
378.987	33.73
379.451	32.66
379.915	31.5
380.378	31.54
380.842	33.85
381.306	31.88
381.769	34.67
382.233	33.3
382.696	31.84
383.16	32.94
383.623	32.44
384.087	33.12
384.55	32.5
385.014	33.33
385.477	32.69
385.94	33.7
386.404	35.07
386.867	33.23
387.33	34.85
387.793	33.96
388.256	34.54
388.72	31.54
389.183	33.72
389.646	35.18
390.109	35.66
390.572	36.66
391.035	34.26
391.498	34.59
391.961	34.32
392.424	34.45
392.887	34.89
393.35	35.03
393.812	34.42
394.275	33.81
394.738	36.06
395.201	35.85
395.664	34.09
396.126	36.79
396.589	34.97
397.052	35.21
397.514	37.82
397.977	36.22
398.439	36.06
398.902	35.98
399.364	36.06
399.827	35.95
400.289	34.54
400.752	37.29
401.214	36.45
401.676	37.73
402.139	36.25
402.601	35.52
403.063	36.56
403.525	38.12
403.988	32.19
404.45	34.8
404.912	36.89
405.374	35.72
405.836	35.84
406.298	36.27
406.76	35.97
407.222	36.41
407.684	37.26
408.146	36.03
408.608	36.52
409.07	35.44
409.532	35.76
409.994	34.63
410.456	36.45
410.917	36.98
411.379	33.46
411.841	38.15
412.303	34.5
412.764	36.17
413.226	34.99
413.687	34.11
414.149	35.93
414.611	37.18
415.072	36.79
415.534	34.68
415.995	35.21
416.457	38.32
416.918	37.31
417.379	36.09
417.841	38.27
418.302	36.06
418.763	36.59
419.225	35.31
419.686	36.93
420.147	35.16
420.608	37.6
421.069	36.5
421.53	36.31
421.991	38.04
422.453	36.12
422.914	37.9
423.375	35.9
423.836	35.72
424.297	38.19
424.757	37.57
425.218	37.82
425.679	34.99
426.14	38.24
426.601	35.58
427.062	37.47
427.522	38.16
427.983	35.56
428.444	38.28
428.904	38.89
429.365	37.58
429.826	39.23
430.286	40.34
430.747	35.73
431.207	38.96
431.668	38.3
432.128	38.22
432.589	38.85
433.049	37.38
433.509	38.61
433.97	37.91
434.43	36.79
434.89	39.89
435.351	37.59
435.811	39.14
436.271	39.65
436.731	40.24
437.191	36.36
437.651	40.65
438.112	40.8
438.572	41.43
439.032	36.58
439.492	40.69
439.952	36.58
440.412	37.82
440.871	41.35
441.331	40.03
441.791	39.35
442.251	41.39
442.711	38.31
443.171	39.62
443.63	39.68
444.09	42.84
444.55	37.11
445.009	41.08
445.469	38.74
445.929	39.7
446.388	40.7
446.848	39.8
447.307	36.02
447.767	41.6
448.226	40.22
448.686	42.73
449.145	38.6
449.604	39.45
450.064	39.98
450.523	42.11
450.982	39.36
451.442	41.39
451.901	42.26
452.36	40.77
452.819	38.82
453.278	40.64
453.737	41.71
454.197	38.37
454.656	40.89
455.115	41.99
455.574	40.58
456.033	39.73
456.492	38.64
456.95	41.58
457.409	41.63
457.868	39.25
458.327	41.15
458.786	40.71
459.245	39.79
459.703	40.58
460.162	42.66
460.621	41.39
461.079	42.54
461.538	41.61
461.997	40.6
462.455	40.64
462.914	39.93
463.372	39.05
463.831	39.36
464.289	40.03
464.748	41.33
465.206	39.27
465.664	42.7
466.123	37.44
466.581	39.62
467.039	42.43
467.497	37.66
467.956	38.48
468.414	42.92
468.872	39.4
469.33	35.77
469.788	43.14
470.246	42.11
470.704	40.59
471.162	41.61
471.62	39.71
472.078	38.15
472.536	39.79
472.994	38.94
473.452	39.82
473.91	39.37
474.368	38.35
474.826	41.23
475.283	40.45
475.741	39.39
476.199	43.53
476.656	41.61
477.114	39.44
477.572	38.62
478.029	39.1
478.487	40.27
478.944	38.18
479.402	40.33
479.859	42.73
480.317	40.82
480.774	40.95
481.232	38.79
481.689	40.02
482.146	38.57
482.604	39.08
483.061	41.29
483.518	39.9
483.975	38.17
484.433	38.63
484.89	40.34
485.347	38.86
485.804	43.42
486.261	39.94
486.718	37.95
487.175	39.79
487.632	41.61
488.089	41.77
488.546	41.44
489.003	39.63
489.46	39.61
489.917	41.38
490.373	41.82
490.83	40.68
491.287	42.07
491.744	41.15
492.2	40.84
492.657	39.9
493.114	40.81
493.57	42.01
494.027	41.95
494.484	43.11
494.94	42.16
495.397	43.54
495.853	41.29
496.31	43.53
496.766	39.34
497.222	40.17
497.679	38.57
498.135	41.57
498.591	40.39
499.048	39.42
499.504	38.19
499.96	38.87
500.416	39.61
500.872	43.31
501.329	40.26
501.785	40.94
502.241	41.05
502.697	40.07
503.153	40.83
503.609	39.92
504.065	42.55
504.521	41.17
504.977	42.73
505.432	37.96
505.888	42.87
506.344	40.52
506.8	41.75
507.256	42.8
507.711	40.8
508.167	37.57
508.623	41.78
509.078	41.5
509.534	43.53
509.99	40.37
510.445	41.79
510.901	40.55
511.356	41.01
511.812	43.47
512.267	40.84
512.722	41.44
513.178	41.94
513.633	41.13
514.089	43.03
514.544	41.67
514.999	37.7
515.454	40.63
515.91	41.84
516.365	42.05
516.82	42.52
517.275	39.87
517.73	42.29
518.185	40.49
518.64	42.3
519.095	42.3
519.55	42.25
520.005	41.27
520.46	39.82
520.915	40.97
521.37	39.93
521.825	42.95
522.28	42.38
522.734	40.37
523.189	42.43
523.644	41.95
524.099	41.25
524.553	42.74
525.008	41.69
525.462	43.03
525.917	42.56
526.372	41.2
526.826	42.13
527.281	42.61
527.735	40.9
528.19	43.62
528.644	44.92
529.098	41.19
529.553	38.99
530.007	43.3
530.461	43.4
530.916	42.74
531.37	41.9
531.824	42.31
532.278	44.58
532.732	40.68
533.186	40.17
533.641	41.13
534.095	42.74
534.549	45.93
535.003	44.66
535.457	42.32
535.911	41.54
536.365	42.07
536.818	41.58
537.272	42.57
537.726	40.57
538.18	42.59
538.634	42.39
539.087	42.72
539.541	40.47
539.995	39.43
540.449	43.81
540.902	43.15
541.356	41.94
541.809	42.39
542.263	41.75
542.716	42.48
543.17	46.08
543.623	42.13
544.077	40.95
544.53	44.4
544.984	45.03
545.437	40.47
545.89	43.01
546.344	42
546.797	44.24
547.25	41.38
547.703	43.88
548.157	43.65
548.61	43.2
549.063	44.07
549.516	44.05
549.969	45.3
550.422	44.42
550.875	42.76
551.328	40.98
551.781	46.16
552.234	44.49
552.687	41.31
553.14	42.7
553.592	43.72
554.045	46.52
554.498	44.93
554.951	42.83
555.404	44.81
555.856	45.08
556.309	43.86
556.762	42.5
557.214	45.36
557.667	44.5
558.119	45.34
558.572	45.54
559.024	44.66
559.477	43.79
559.929	45.27
560.382	41.07
560.834	45.44
561.286	43.45
561.739	44.91
562.191	45.76
562.643	43.11
563.095	43.94
563.548	43.17
564	43.88
564.452	45.45
564.904	45.29
565.356	43.8
565.808	46.78
566.26	46.45
566.712	45.92
567.164	43.13
567.616	46.05
568.068	46.43
568.52	43.39
568.972	45.7
569.424	46.01
569.876	44.83
570.327	44.78
570.779	46.47
571.231	43.02
571.682	45.35
572.134	45.95
572.586	46.77
573.037	44.7
573.489	45.79
573.941	47.67
574.392	44.76
574.844	43.74
575.295	45.78
575.746	44.52
576.198	45.38
576.649	44.17
577.101	44.61
577.552	44.45
578.003	45.34
578.454	44.81
578.906	45.38
579.357	44.9
579.808	45.97
580.259	45.62
580.71	45.29
581.161	45.99
581.612	43.89
582.064	43.52
582.515	42.93
582.965	44.22
583.416	45.66
583.867	43.81
584.318	44.65
584.769	44.51
585.22	46.05
585.671	45.95
586.122	43.21
586.572	46.29
587.023	47.48
587.474	47.86
587.924	46.47
588.375	45.95
588.826	44.91
589.276	44.11
589.727	43.87
590.177	46.11
590.628	44.68
591.078	44.87
591.529	44.04
591.979	45.08
592.429	41.29
592.88	46.26
593.33	46.77
593.78	48.4
594.231	44.93
594.681	45.19
595.131	45.64
595.581	45.15
596.031	44.76
596.481	45.87
596.932	46.97
597.382	44.62
597.832	47.63
598.282	46.44
598.732	45.35
599.182	43.7
599.632	45.66
600.081	45.24
600.531	46.12
600.981	45.8
601.431	43.2
601.881	44.46
602.33	45.43
602.78	44.3
603.23	45.22
603.679	44.71
604.129	46.1
604.579	44.58
605.028	44.74
605.478	44.74
605.927	45.56
606.377	44.79
606.826	46.09
607.276	45.84
607.725	46.52
608.175	46.17
608.624	46.26
609.073	45
609.522	44.33
609.972	44.76
610.421	47.33
610.87	46.24
611.319	44.84
611.768	44.78
612.218	45.6
612.667	45.98
613.116	45.67
613.565	44.85
614.014	45.81
614.463	44.28
614.912	47.83
615.361	46.4
615.81	46.13
616.258	46.47
616.707	46.1
617.156	45.6
617.605	43.97
618.054	45.33
618.502	43.67
618.951	45.34
619.4	45.93
619.848	45.95
620.297	44.43
620.745	45.87
621.194	45.4
621.642	44.47
622.091	44.7
622.539	45.35
622.988	44.54
623.436	46.14
623.885	44
624.333	45.57
624.781	45.26
625.23	44.38
625.678	45.84
626.126	44.51
626.574	45.06
627.022	46.1
627.471	44.08
627.919	45.58
628.367	45.68
628.815	44.37
629.263	45.51
629.711	44.56
630.159	44.23
630.607	46.24
631.055	44.99
631.503	45.18
631.95	46.09
632.398	43.89
632.846	45.68
633.294	45.62
633.742	45.1
634.189	45.12
634.637	45.51
635.085	45.13
635.532	45.9
635.98	45.62
636.427	44.62
636.875	44.78
637.323	43.96
637.77	44.91
638.217	44.75
638.665	44.49
639.112	45.08
639.56	45.59
640.007	44.08
640.454	46.14
640.902	44.96
641.349	45.04
641.796	46.77
642.243	44.94
642.69	44.63
643.138	44.03
643.585	43.8
644.032	43.75
644.479	44.43
644.926	44.62
645.373	44.78
645.82	44.52
646.267	45.02
646.714	45.53
647.161	45.55
647.607	46.24
648.054	45.71
648.501	45.07
648.948	46.05
649.395	45.31
649.841	44.79
650.288	44.28
650.735	45.16
651.181	44.18
651.628	45.77
652.075	45.46
652.521	45.5
652.968	45.17
653.414	45.51
653.861	45.13
654.307	45.03
654.753	43.86
655.2	44.41
655.646	44.89
656.092	44.34
656.539	45.3
656.985	45.56
657.431	44.71
657.877	45
658.324	45.81
658.77	45.49
659.216	44.83
659.662	45.04
660.108	44.75
660.554	44.89
661	43.8
661.446	45.1
661.892	44.19
662.338	43.68
662.784	44.59
663.23	44.26
663.675	44.73
664.121	44.98
664.567	45.31
665.013	45.19
665.458	45.15
665.904	45.16
666.35	46.41
666.795	43.72
667.241	44.22
667.687	44.63
668.132	44.21
668.578	45.14
669.023	43.8
669.469	43.49
669.914	44.44
670.359	44.6
670.805	43.4
671.25	44.82
671.695	44.11
672.141	44.08
672.586	45.46
673.031	44.28
673.476	43.68
673.922	45.89
674.367	44.09
674.812	44.28
675.257	43.96
675.702	44.49
676.147	43.21
676.592	43.88
677.037	44.48
677.482	45.23
677.927	44.68
678.372	45.64
678.817	44.27
679.261	44.41
679.706	44.33
680.151	43.89
680.596	45.72
681.04	43.78
681.485	44.53
681.93	44.87
682.374	45.07
682.819	44.76
683.264	44.95
683.708	44.94
684.153	44.15
684.597	44.38
685.042	45.14
685.486	44.92
685.93	43.5
686.375	44.86
686.819	45.11
687.263	43.62
687.708	44.41
688.152	44.85
688.596	43.99
689.04	45.52
689.485	46.42
689.929	45.49
690.373	45.39
690.817	44.48
691.261	43.51
691.705	44.01
692.149	44.81
692.593	44.59
693.037	43.89
693.481	45.05
693.925	45.56
694.369	45.16
694.812	43.06
695.256	45.17
695.7	45.6
696.144	44.06
696.587	44.26
697.031	44.42
697.475	45.77
697.918	44.26
698.362	42.93
698.806	43.67
699.249	44.33
699.693	44.5
700.136	44.65
700.58	44.51
701.023	44.32
701.466	44.8
701.91	44.82
702.353	44.89
702.796	43.51
703.24	44.36
703.683	43.52
704.126	44.09
704.569	43.71
705.013	43.98
705.456	44.83
705.899	43.9
706.342	45.71
706.785	44.05
707.228	44.36
707.671	43.69
708.114	43.51
708.557	43.32
709	43.49
709.443	44.72
709.886	44.55
710.328	44.08
710.771	44.15
711.214	44.55
711.657	43.87
712.099	44.28
712.542	44.02
712.985	44.29
713.427	45.2
713.87	44.8
714.313	44.54
714.755	43.6
715.198	45.05
715.64	43.58
716.083	43.57
716.525	44.19
716.967	42.6
717.41	44.83
717.852	44.05
718.295	45.18
718.737	43.73
719.179	43.31
719.621	44.51
720.063	44.18
720.506	43.42
720.948	44.09
721.39	43.95
721.832	43.62
722.274	43.62
722.716	43.58
723.158	44.23
723.6	45.61
724.042	44.2
724.484	44.74
724.926	44.16
725.368	44.98
725.81	43.54
726.251	43.62
726.693	44.1
727.135	44.58
727.577	42.59
728.018	45.68
728.46	43.06
728.902	44.53
729.343	43.82
729.785	44.39
730.226	44.12
730.668	44.61
731.109	43.41
731.551	43.28
731.992	42.22
732.434	44.76
732.875	44.27
733.316	43.25
733.758	43.61
734.199	42.81
734.64	44.18
735.081	43.1
735.523	44.04
735.964	44.44
736.405	45.12
736.846	43.94
737.287	43.54
737.728	43.38
738.169	43.91
738.61	42.92
739.051	42.5
739.492	43.71
739.933	42.28
740.374	43.52
740.815	44.31
741.256	43.73
741.696	43.69
742.137	44.33
742.578	43.38
743.019	42.29
743.459	43.47
743.9	44.75
744.341	43.31
744.781	43.46
745.222	44.17
745.662	44.32
746.103	43.81
746.543	43.82
746.984	44.08
747.424	43.73
747.865	44.23
748.305	43.67
748.745	44.01
749.186	43.31
749.626	43.98
750.066	43.65
750.506	43.49
750.947	43.05
751.387	43.25
751.827	43.43
752.267	43.96
752.707	44.24
753.147	43.83
753.587	43.53
754.027	43.43
754.467	44.2
754.907	43.05
755.347	43.73
755.787	43.63
756.227	43.81
756.667	43.66
757.107	44.41
757.546	43.15
757.986	42.76
758.426	43.09
758.865	43.9
759.305	42.88
759.745	42.61
760.184	44.36
760.624	43.05
761.063	43.4
761.503	42.66
761.943	42.96
762.382	42.88
762.821	43.76
763.261	41.99
763.7	44.05
764.14	43.87
764.579	43.84
765.018	43.95
765.457	42.82
765.897	43.25
766.336	43.97
766.775	42.94
767.214	42.3
767.653	42.54
768.092	44.73
768.531	43.02
768.97	43.59
769.409	43.45
769.848	42.89
770.287	43.5
770.726	43.02
771.165	43.94
771.604	43.45
772.043	43.4
772.482	43.54
772.92	44
773.359	43.13
773.798	42.93
774.237	43.52
774.675	42.29
775.114	43.93
775.553	43.17
775.991	43.59
776.43	42.32
776.868	43.6
777.307	41.57
777.745	43.38
778.184	42.6
778.622	42.99
779.06	42.21
779.499	43.15
779.937	43.18
780.375	43.7
780.814	43.27
781.252	43.81
781.69	42.53
782.128	43
782.566	42.5
783.004	43.06
783.443	43.99
783.881	43.26
784.319	43.56
784.757	43.05
785.195	42.48
785.633	43.12
786.071	43.22
786.508	43.98
786.946	42.97
787.384	43.25
787.822	43.02
788.26	43.62
788.697	43
789.135	43.23
789.573	43.24
790.011	42.95
790.448	42.89
790.886	42.77
791.323	43.31
791.761	43.61
792.198	43.14
792.636	42.9
793.073	43
793.511	43.16
793.948	43.32
794.386	42.03
794.823	44.27
795.26	42.81
795.698	42.35
796.135	43.72
796.572	42.94
797.009	42.84
797.446	42.67
797.884	43.13
798.321	43.05
798.758	42.52
799.195	42.89
799.632	43.01
800.069	42.53
800.506	42.24
800.943	42.64
801.38	42.83
801.817	43.37
802.254	42.69
802.69	43.37
803.127	42.59
803.564	43.3
804.001	42.21
804.438	43.04
804.874	43.16
805.311	43.26
805.748	42.99
806.184	44.48
806.621	42.31
807.057	43.22
807.494	42.87
807.93	42.72
808.367	43.3
808.803	42.51
809.24	42.55
809.676	43.68
810.112	42.2
810.549	42.96
810.985	42.82
811.421	43.61
811.857	43.51
812.294	42.59
812.73	42.86
813.166	42.8
813.602	43.13
814.038	43.44
814.474	42.41
814.91	42.64
815.346	43.42
815.782	42.45
816.218	42.21
816.654	42.59
817.09	42.82
817.526	42.62
817.962	42.92
818.398	41.45
818.833	42.97
819.269	42.42
819.705	42.44
820.141	42.61
820.576	42.24
821.012	43.6
821.447	43.46
821.883	42.51
822.319	42.6
822.754	42.28
823.19	42.67
823.625	42.01
824.061	42.63
824.496	42.05
824.931	42.62
825.367	42.24
825.802	42.52
826.237	42.41
826.673	43.19
827.108	42.73
827.543	43.05
827.978	42.6
828.413	42.18
828.849	42.47
829.284	42.73
829.719	42.41
830.154	42.67
830.589	41.9
831.024	43.34
831.459	42.55
831.894	43.05
832.329	41.93
832.763	42.89
833.198	42.27
833.633	41.96
834.068	42.26
834.503	42.61
834.937	43.11
835.372	42.72
835.807	42.3
836.241	42.26
836.676	42.5
837.111	42.59
837.545	42.37
837.98	41.94
838.414	41.86
838.849	42.62
839.283	41.83
839.717	42.66
840.152	42.68
840.586	42.45
841.021	42
841.455	42.51
841.889	41.92
842.323	41.71
842.758	42.11
843.192	42.25
843.626	42.93
844.06	42.78
844.494	42.7
844.928	42.49
845.362	42.22
845.796	42.8
846.23	42.91
846.664	42.07
847.098	42.24
847.532	42.08
847.966	41.84
848.4	42.1
848.834	41.8
849.267	42.51
849.701	42.34
850.135	42.89
850.569	41.98
851.002	42.6
851.436	42.97
851.87	42.21
852.303	42.57
852.737	42.47
853.17	42.64
853.604	42.45
854.037	42.18
854.471	42.23
854.904	42.84
855.337	42.25
855.771	42.39
856.204	41.69
856.637	42.29
857.071	43.12
857.504	42.37
857.937	42.31
858.37	42.54
858.804	42.04
859.237	42.28
859.67	42.28
860.103	42.36
860.536	41.68
860.969	41.73
861.402	41.74
861.835	42.46
862.268	42.55
862.701	42.8
863.134	42.34
863.566	42.13
863.999	41.94
864.432	42.2
864.865	41.78
865.298	41.46
865.73	42.35
866.163	42.24
866.596	41.73
867.028	42.16
867.461	42.96
867.893	41.77
868.326	42.1
868.758	41.78
869.191	42.71
869.623	42.08
870.056	42.06
870.488	42.54
870.92	42.27
871.353	41.89
871.785	41.95
872.217	41.92
872.65	42.12
873.082	41.86
873.514	41.17
873.946	42.28
874.378	42.04
874.81	42.02
875.243	41.82
875.675	41.72
876.107	42.31
876.539	41.86
876.971	41.86
877.403	42.1
877.834	42.19
878.266	41.87
878.698	42.26
879.13	41.82
879.562	42.02
879.994	41.64
880.425	41.88
880.857	42.49
881.289	41.61
881.72	41.72
882.152	41.48
882.584	41.3
883.015	41.42
883.447	41.31
883.878	41.54
884.31	41.82
884.741	41.93
885.173	42.94
885.604	41.83
886.035	41.62
886.467	41.48
886.898	41.94
887.329	41.85
887.76	41.94
888.192	41.9
888.623	41.75
889.054	40.78
889.485	41.03
889.916	40.78
890.347	41.09
890.778	41.23
891.209	41.52
891.64	41.07
892.071	41.18
892.502	41.57
892.933	41.23
893.364	41.36
893.795	41.56
894.226	41.97
894.657	41.52
895.087	42.06
895.518	41.07
895.949	41.99
896.38	41.79
896.81	41.45
897.241	41.77
897.671	40.99
898.102	41.33
898.533	41.65
898.963	41.87
899.394	41.67
899.824	41.26
900.254	41.03
900.685	41.48
901.115	41.6
901.546	41.39
901.976	41.48
902.406	41.58
902.836	41.37
903.267	41.5
903.697	41.36
904.127	40.72
904.557	41.74
904.987	41.51
905.417	41.51
905.847	42.01
906.277	41.58
906.707	40.87
907.137	41.52
907.567	41.99
907.997	41.62
908.427	41.37
908.857	41.29
909.287	41.02
909.717	41.85
910.146	41.03
910.576	40.96
911.006	41.34
911.436	41.26
911.865	40.8
912.295	41.45
912.724	41.12
913.154	41.55
913.584	40.68
914.013	41.32
914.443	41.07
914.872	40.79
915.302	40.67
915.731	41.64
916.16	41.59
916.59	40.77
917.019	41.44
917.448	41.07
917.878	40.81
918.307	40.78
918.736	40.57
919.165	40.87
919.594	40.78
920.023	41.7
920.452	40.84
920.882	41.08
921.311	40.81
921.74	40.18
922.169	41.41
922.597	40.89
923.026	41.28
923.455	41.72
923.884	41.63
924.313	40.64
924.742	40.77
925.171	41.08
925.599	41.21
926.028	41.22
926.457	40.49
926.885	40.52
927.314	40.9
927.743	40.77
928.171	40.81
928.6	40.61
929.028	40.67
929.457	40.98
929.885	40.19
930.314	40.36
930.742	40.4
931.17	40.74
931.599	41.06
932.027	41.25
932.455	40.28
932.884	41.01
933.312	40.64
933.74	40.59
934.168	40.87
934.596	40.41
935.025	41.5
935.453	40.39
935.881	40.65
936.309	40.87
936.737	40.04
937.165	40.31
937.593	40.58
938.021	40.47
938.449	40.28
938.876	40.45
939.304	40.52
939.732	40.7
940.16	39.88
940.588	40.6
941.015	40.5
941.443	41.31
941.871	40.59
942.298	40.99
942.726	40.31
943.154	40.6
943.581	40.52
944.009	39.83
944.436	40.53
944.864	40.09
945.291	40.43
945.718	40.68
946.146	41.53
946.573	40.13
947.001	40.68
947.428	39.97
947.855	40.85
948.282	40.69
948.71	40.9
949.137	40.19
949.564	40.41
949.991	39.68
950.418	40.49
950.845	40.2
951.272	40.78
951.699	39.72
952.126	40.22
952.553	40.44
952.98	40.48
953.407	39.9
953.834	40.5
954.261	39.94
954.688	39.63
955.114	40.5
955.541	39.86
955.968	40.33
956.395	39.95
956.821	39.87
957.248	40.05
957.674	39.7
958.101	40.14
958.528	40.15
958.954	40.11
959.381	40.32
959.807	40.5
960.234	39.88
960.66	40.32
961.086	40.47
961.513	39.52
961.939	40.65
962.365	39.96
962.792	39.67
963.218	39.79
963.644	39.93
964.07	40.01
964.496	39.77
964.923	40.39
965.349	40.11
965.775	40.69
966.201	40.27
966.627	39.9
967.053	40.45
967.479	39.94
967.905	39.89
968.331	39.77
968.756	39.76
969.182	40.19
969.608	40.02
970.034	39.78
970.46	39.85
970.885	39.78
971.311	39.6
971.737	39.25
972.162	39.9
972.588	39.61
973.014	39.68
973.439	39.27
973.865	39.67
974.29	39.66
974.716	39.42
975.141	39.19
975.567	39.54
975.992	39.73
976.417	40.03
976.843	39.44
977.268	39.33
977.693	40.03
978.119	39.56
978.544	39.5
978.969	39.93
979.394	39.87
979.819	39.65
980.244	39.19
980.669	39.76
981.095	39.49
981.52	39.76
981.945	39.14
982.369	39.97
982.794	39.48
983.219	39.85
983.644	39.24
984.069	39.44
984.494	39.91
984.919	39.73
985.343	39.53
985.768	39.32
986.193	39.12
986.618	39.9
987.042	39.05
987.467	39.89
987.891	39.36
988.316	39.7
988.741	39.93
989.165	38.87
989.59	39.78
990.014	39.38
990.438	39.56
990.863	39.71
991.287	39.32
991.712	39.97
992.136	39.08
992.56	39.67
992.984	39.94
993.409	39.33
993.833	39.31
994.257	39.32
994.681	39.32
995.105	38.88
995.529	39.38
995.953	39.29
996.377	39.02
996.801	39.34
997.225	39.27
997.649	39.78
998.073	39.72
998.497	39.43
998.921	39.15
999.345	39.52
999.769	39.25
1000.192	38.82
1000.616	39.93
1001.04	39.1
1001.464	39.31
1001.887	39.25
1002.311	39.54
1002.734	39.49
1003.158	38.93
1003.582	39.22
1004.005	39.31
1004.429	39.34
1004.852	39.11
1005.275	39.24
1005.699	38.99
1006.122	39.24
1006.546	39.41
1006.969	38.67
1007.392	39.15
1007.815	39.5
1008.239	38.93
1008.662	39.4
1009.085	39.13
1009.508	38.96
1009.931	39.06
1010.354	39.12
1010.778	38.84
1011.201	39.63
1011.624	39.09
1012.047	38.8
1012.469	39.1
1012.892	39.13
1013.315	38.62
1013.738	39.23
1014.161	39.14
1014.584	39.3
1015.007	39.13
1015.429	38.7
1015.852	38.62
1016.275	38.05
1016.697	38.72
1017.12	38.69
1017.543	39.17
1017.965	39.37
1018.388	39.07
1018.81	38.93
1019.233	38.93
1019.655	38.52
1020.078	38.64
1020.5	38.65
1020.922	39.07
1021.345	38.77
1021.767	38.93
1022.189	38.86
1022.612	38.82
1023.034	39.2
1023.456	38.8
1023.878	38.79
1024.301	39.26
1024.723	38.43
1025.145	38.92
1025.567	38.95
1025.989	38.82
1026.411	38.81
1026.833	38.45
1027.255	38.93
1027.677	39.44
1028.099	38.56
1028.52	38.34
1028.942	38.19
1029.364	39.07
1029.786	38.99
1030.208	39.51
1030.629	39.26
1031.051	38.93
1031.473	38.86
1031.894	38.27
1032.316	38.77
1032.738	38.32
1033.159	38.68
1033.581	38.59
1034.002	38.79
1034.424	37.92
1034.845	38.04
1035.267	38.62
1035.688	38.31
1036.109	38.63
1036.531	38.27
1036.952	38.7
1037.373	38.97
1037.794	38.9
1038.216	38.31
1038.637	39.09
1039.058	38.79
1039.479	39.27
1039.9	38.31
1040.321	38.37
1040.742	38.57
1041.163	39.31
1041.584	38.41
1042.005	37.8
1042.426	38.62
1042.847	37.82
1043.268	39.08
1043.689	38.88
1044.11	38.8
1044.53	39.26
1044.951	39.09
1045.372	38.47
1045.793	37.88
1046.213	38.6
1046.634	38.3
1047.055	38.92
1047.475	38.69
1047.896	38.79
1048.316	37.61
1048.737	39.43
1049.157	38.46
1049.578	38.07
1049.998	38.24
1050.419	37.93
1050.839	38.16
1051.259	38.59
1051.68	37.92
1052.1	38.88
1052.52	38.16
1052.94	38.85
1053.361	38.49
1053.781	39.07
1054.201	37.74
1054.621	38.5
1055.041	37.42
1055.461	38.04
1055.881	38.78
1056.301	37.9
1056.721	39.17
1057.141	37.92
1057.561	38.31
1057.981	38.22
1058.401	38.97
1058.82	38.07
1059.24	38.13
1059.66	37.79
1060.08	38.32
1060.499	38.15
1060.919	37.85
1061.339	39.01
1061.758	37.71
1062.178	38.26
1062.598	38.19
1063.017	38.63
1063.437	37.98
1063.856	37.95
1064.276	37.39
1064.695	37.88
1065.114	37.06
1065.534	38.32
1065.953	37.97
1066.372	37.92
1066.792	38.83
1067.211	38.08
1067.63	38.65
1068.049	38.75
1068.469	38.37
1068.888	38.58
1069.307	38.56
1069.726	37.74
1070.145	38.78
1070.564	37.41
1070.983	38.05
1071.402	38
1071.821	36.93
1072.24	38.54
1072.659	37.83
1073.078	36.11
1073.496	37.44
1073.915	37.99
1074.334	37.68
1074.753	36.41
1075.171	37.36
1075.59	38.13
1076.009	38.78
1076.427	37.11
1076.846	37.51
1077.265	38.46
1077.683	37.86
1078.102	38.4
1078.52	36.88
1078.939	36.69
1079.357	36.95
1079.776	37.66
1080.194	37.65
1080.612	39.25
1081.031	36.42
1081.449	37.66
1081.867	39.15
1082.285	38.25
1082.704	36.49
1083.122	38.09
1083.54	38.09
1083.958	37.73
1084.376	37.68
1084.794	37.39
1085.212	38.23
1085.63	37.43
1086.048	37.39
1086.466	38.35
1086.884	36.84
1087.302	38.1
1087.72	37.45
1088.138	36.32
1088.555	36.77
1088.973	37.84
1089.391	36.1
1089.809	37.54
1090.226	38.5
1090.644	36.39
1091.062	37.66
1091.479	36.98
1091.897	36.33
1092.314	37.68
1092.732	36.82
1093.15	36.03
1093.567	38.18
1093.984	36.64
1094.402	37.34
1094.819	36.14
1095.237	37.8
1095.654	36.85
1096.071	36.25
1096.488	37.88
1096.906	37.71
1097.323	38.07
1097.74	36.8
1098.157	37.73
1098.574	37.4
1098.991	35.7
1099.409	35.77
1099.826	37.41
1100.243	36.77
1100.66	38.48
1101.077	36.95
1101.494	37.69
1101.91	35.73
1102.327	35.44
1102.744	35.11
1103.161	35.73
1103.578	35.97
1103.994	37.11
1104.411	39.66
1104.828	36.03
1105.245	35.2
1105.661	36.47
1106.078	37.57
1106.494	36.12
1106.911	35.12
1107.328	33.38
1107.744	38.16
1108.161	34.45
1108.577	34.61
1108.993	33.87
1109.41	37.59
1109.826	34.05
1110.242	35.44
1110.659	37.57
1111.075	36.21
1111.491	35.63
1111.908	32.06
1112.324	34.94
1112.74	49.18
1113.156	34.61
1113.572	34.18
1113.988	31.74
1114.404	36.47
1114.82	35
1115.236	35.56
1115.652	31.51
1116.068	36.67
1116.484	35.09
1116.9	33.25
1117.316	37.92
1117.732	1.61
1118.147	55.77
1118.563	60.71
1118.979	134.37
