Data from JCR0025_Black1_Reflection_00001.txt Node
Date: Fri Jul 31 11:58:18 ACST 2020
User: Stacey Dix
Spectrometer: MAYP113282
Scans to average: 1
Trigger mode: 0
Integration Time (sec): 1.000000E-1
Electric dark correction enabled: true
Boxcar width: 0
XAxis mode: Wavelengths
Number of Pixels in Spectrum: 2068
>>>>>Begin Spectral Data<<<<<
198.791	-68.18
199.266	93.75
199.74	15
200.215	-225
200.69	15.99
201.164	13.52
201.639	-3.88
202.114	25.09
202.588	32.56
203.063	36.45
203.537	5.65
204.012	-15.07
204.486	8.86
204.961	19.26
205.435	10.64
205.909	24.1
206.384	4.52
206.858	0.55
207.332	26.14
207.807	14.5
208.281	19.76
208.755	8.85
209.229	6.09
209.703	-0.53
210.177	30.17
210.651	15.71
211.126	0.53
211.6	-2.95
212.074	10.66
212.548	28.94
213.021	3.96
213.495	35.92
213.969	2.9
214.443	15.55
214.917	0.34
215.391	20.13
215.864	4.73
216.338	-3.63
216.812	8.2
217.286	10.45
217.759	9.3
218.233	5.48
218.706	7.51
219.18	13.41
219.654	0.78
220.127	8.97
220.6	-0.21
221.074	12.57
221.547	5.26
222.021	13.76
222.494	9.36
222.967	15.51
223.441	9.66
223.914	14.36
224.387	8.42
224.86	12.45
225.334	11.78
225.807	6.49
226.28	5.46
226.753	6.53
227.226	10.31
227.699	6.14
228.172	8.02
228.645	10.33
229.118	4.73
229.591	10.07
230.064	8.04
230.537	8.73
231.01	9.22
231.482	6.53
231.955	7.64
232.428	7.96
232.901	7.58
233.373	7.6
233.846	7.81
234.319	7.17
234.791	7.41
235.264	8.37
235.736	5.65
236.209	7.15
236.681	7.7
237.154	7.3
237.626	8.31
238.099	6.46
238.571	7.16
239.044	7.93
239.516	7.79
239.988	6.52
240.46	7.53
240.933	6.22
241.405	7.86
241.877	8.32
242.349	7.6
242.821	7.11
243.293	7.03
243.765	6.76
244.237	6.77
244.71	8.06
245.181	6.32
245.653	6.62
246.125	7.5
246.597	8.37
247.069	5.83
247.541	6.98
248.013	7
248.485	7.54
248.956	7.04
249.428	5.33
249.9	6.76
250.371	6.81
250.843	6.81
251.315	6.52
251.786	6.33
252.258	6.03
252.729	7.91
253.201	6.1
253.672	6.41
254.144	6.85
254.615	6.18
255.086	6.55
255.558	6.78
256.029	6.37
256.5	7.18
256.972	6.26
257.443	6.23
257.914	5.96
258.385	6.35
258.856	6.41
259.327	6.65
259.799	6.78
260.27	6.84
260.741	5.78
261.212	6.7
261.683	6.78
262.154	6.18
262.624	6.42
263.095	6.87
263.566	6.05
264.037	6.79
264.508	5.92
264.979	6.41
265.449	6.45
265.92	6.34
266.391	5.9
266.861	6.24
267.332	6.2
267.803	6.34
268.273	6.48
268.744	5.83
269.214	5.78
269.685	6.23
270.155	6.62
270.626	6.74
271.096	6.19
271.566	6.29
272.037	6.87
272.507	6.64
272.977	6.7
273.448	6.48
273.918	5.83
274.388	6.64
274.858	5.34
275.328	6.66
275.798	5.81
276.268	6.25
276.738	6.02
277.208	6.18
277.678	6.64
278.148	6.07
278.618	6.09
279.088	6.66
279.558	6.03
280.028	5.64
280.498	6.2
280.968	6.58
281.437	5.12
281.907	5.67
282.377	6.18
282.847	6.12
283.316	6.33
283.786	6.27
284.255	5.79
284.725	6.41
285.194	6.38
285.664	6.26
286.133	6.17
286.603	5.51
287.072	6.14
287.542	6.53
288.011	6.51
288.48	5.89
288.95	6.31
289.419	6.16
289.888	5.42
290.357	6.15
290.827	5.74
291.296	6.6
291.765	5.69
292.234	6.29
292.703	6.17
293.172	6.75
293.641	5.62
294.11	6.38
294.579	5.76
295.048	6.12
295.517	5.62
295.986	7.13
296.455	6.41
296.923	7.28
297.392	5.7
297.861	5.71
298.33	5.58
298.798	6.57
299.267	7.47
299.736	6.14
300.204	6.1
300.673	6.19
301.141	5.66
301.61	7.03
302.079	6.08
302.547	5.98
303.015	5.74
303.484	6.02
303.952	6.56
304.421	5.97
304.889	5.98
305.357	7.04
305.825	6
306.294	6.5
306.762	5.97
307.23	7.2
307.698	6.68
308.166	6.13
308.634	6.64
309.103	5.9
309.571	6.11
310.039	6.56
310.507	5.91
310.975	6.85
311.442	6.82
311.91	6.6
312.378	7.48
312.846	6.19
313.314	6.75
313.782	6.26
314.249	6.68
314.717	7.01
315.185	6.32
315.652	6.57
316.12	6.1
316.588	6.27
317.055	6.92
317.523	6.36
317.99	7.04
318.458	6.34
318.925	6.65
319.393	5.95
319.86	7.23
320.328	6.9
320.795	6.51
321.262	7.28
321.73	5.53
322.197	6.36
322.664	6.39
323.131	6.4
323.598	7.55
324.066	5.8
324.533	6.42
325	7.64
325.467	6.87
325.934	6.59
326.401	6.06
326.868	7.22
327.335	6.93
327.802	6.45
328.269	6.35
328.735	6.99
329.202	7.35
329.669	6.14
330.136	6.68
330.603	7.15
331.069	6.98
331.536	6.9
332.003	6.6
332.469	6.63
332.936	6.48
333.402	7.02
333.869	7.13
334.336	6.96
334.802	7.08
335.268	5.82
335.735	6.27
336.201	6.67
336.668	6.36
337.134	6.03
337.6	6.06
338.067	6.24
338.533	5.93
338.999	5.73
339.465	6.92
339.931	6.53
340.398	6.35
340.864	6.25
341.33	5.8
341.796	7.28
342.262	6.21
342.728	6.19
343.194	6.72
343.66	5.77
344.126	6.72
344.592	6.33
345.057	6.8
345.523	5.83
345.989	6.87
346.455	7.42
346.921	7.58
347.386	6.88
347.852	6.59
348.318	5.56
348.783	7.37
349.249	5.93
349.714	6.62
350.18	6.43
350.645	6.69
351.111	6.8
351.576	6.13
352.042	7.23
352.507	6.69
352.973	5.82
353.438	6.5
353.903	7.12
354.369	5.84
354.834	6.69
355.299	6.74
355.764	6.62
356.229	5.93
356.695	6.74
357.16	6.56
357.625	6.96
358.09	6.47
358.555	7.14
359.02	5.57
359.485	5.96
359.95	5.77
360.415	6.41
360.879	7.09
361.344	7.14
361.809	6.16
362.274	5.96
362.739	6.15
363.203	6.27
363.668	6.38
364.133	6.14
364.597	6.94
365.062	6.46
365.527	6.95
365.991	5.32
366.456	6.78
366.92	6.52
367.385	5.89
367.849	6.89
368.314	5.48
368.778	6.59
369.242	7.13
369.707	7.17
370.171	5.88
370.635	5.6
371.1	5.78
371.564	6.77
372.028	5.81
372.492	5.27
372.956	5.66
373.42	6.16
373.884	5.77
374.348	5.58
374.812	5.83
375.276	6.06
375.74	5.2
376.204	6.61
376.668	6.71
377.132	6.17
377.596	5.51
378.06	5.32
378.524	5.67
378.987	6.01
379.451	5.93
379.915	6.48
380.378	6.04
380.842	6.63
381.306	6.24
381.769	5.36
382.233	7.82
382.696	5.77
383.16	6.63
383.623	5.71
384.087	5.55
384.55	5.54
385.014	5.56
385.477	6.28
385.94	5.61
386.404	6.22
386.867	6.45
387.33	5.58
387.793	6.8
388.256	5.5
388.72	5.89
389.183	6.87
389.646	5.66
390.109	6.56
390.572	5.86
391.035	5.85
391.498	6.54
391.961	5.88
392.424	5.36
392.887	5.94
393.35	5.94
393.812	5.8
394.275	5.49
394.738	6.07
395.201	6.41
395.664	6.63
396.126	6.32
396.589	5.53
397.052	6.03
397.514	5.73
397.977	5.72
398.439	6.41
398.902	5.92
399.364	6.44
399.827	5.31
400.289	6.07
400.752	6.03
401.214	6.32
401.676	6.23
402.139	5.69
402.601	5.38
403.063	5.79
403.525	6.28
403.988	6.22
404.45	6.04
404.912	5.88
405.374	5.72
405.836	4.94
406.298	6.43
406.76	5.74
407.222	5.86
407.684	5.46
408.146	5.74
408.608	5.11
409.07	6.19
409.532	5.71
409.994	4.89
410.456	5.77
410.917	6.69
411.379	6.12
411.841	5.44
412.303	5.15
412.764	5.94
413.226	5.4
413.687	5.51
414.149	5.32
414.611	5.79
415.072	6.5
415.534	5.23
415.995	6.02
416.457	4.81
416.918	5.54
417.379	6.21
417.841	5.44
418.302	5.81
418.763	5.94
419.225	6.33
419.686	6.92
420.147	5.2
420.608	6.27
421.069	5.83
421.53	6.04
421.991	6.18
422.453	5.48
422.914	6.3
423.375	5.77
423.836	4.99
424.297	5.57
424.757	5.78
425.218	4.52
425.679	6.46
426.14	4.84
426.601	6.26
427.062	5.64
427.522	4.51
427.983	6.59
428.444	5.27
428.904	5.61
429.365	5.43
429.826	6.82
430.286	6.71
430.747	6.22
431.207	5.84
431.668	5.93
432.128	6.35
432.589	5.98
433.049	4.7
433.509	4.34
433.97	5.47
434.43	6.71
434.89	6.1
435.351	4.24
435.811	5.7
436.271	5.53
436.731	5.68
437.191	6.22
437.651	6.97
438.112	6.63
438.572	6.14
439.032	4.59
439.492	6.6
439.952	5.98
440.412	4.59
440.871	6.01
441.331	6.2
441.791	6.11
442.251	5
442.711	5.98
443.171	5.58
443.63	5.11
444.09	6.66
444.55	7.02
445.009	7.8
445.469	6.31
445.929	7.58
446.388	4.78
446.848	6.1
447.307	6.35
447.767	6.37
448.226	6.43
448.686	6.4
449.145	5.19
449.604	4.61
450.064	5.13
450.523	6.95
450.982	5.13
451.442	6.8
451.901	7.25
452.36	5.92
452.819	5.95
453.278	6.45
453.737	5.44
454.197	5.56
454.656	4.53
455.115	4.16
455.574	6.98
456.033	6.73
456.492	5.74
456.95	5.41
457.409	5.38
457.868	5.84
458.327	5.93
458.786	4.54
459.245	5.78
459.703	5.12
460.162	5.75
460.621	6.03
461.079	5.46
461.538	5.77
461.997	5.69
462.455	6.72
462.914	5.39
463.372	4.91
463.831	4.18
464.289	7.26
464.748	6.06
465.206	6.36
465.664	4.95
466.123	6.16
466.581	6.67
467.039	6.18
467.497	5.06
467.956	6.13
468.414	6.52
468.872	2.78
469.33	5.85
469.788	7.14
470.246	5.4
470.704	5.77
471.162	5.56
471.62	7.33
472.078	6.87
472.536	4.37
472.994	7.68
473.452	5.5
473.91	6.21
474.368	6.37
474.826	8.36
475.283	6.65
475.741	6.14
476.199	6.93
476.656	6.85
477.114	6.38
477.572	6.83
478.029	6.27
478.487	5.08
478.944	7.66
479.402	6.91
479.859	5.77
480.317	6.92
480.774	7.51
481.232	5.35
481.689	6.69
482.146	5.45
482.604	5.6
483.061	7.09
483.518	5.77
483.975	6.26
484.433	5.48
484.89	7.92
485.347	4.2
485.804	6.87
486.261	5.87
486.718	6.82
487.175	7.94
487.632	7.89
488.089	5.82
488.546	8.87
489.003	9.13
489.46	6.16
489.917	8.72
490.373	6.74
490.83	6.57
491.287	8.81
491.744	5.27
492.2	5.81
492.657	7.94
493.114	7.17
493.57	6.18
494.027	6.95
494.484	6.57
494.94	5.17
495.397	7.36
495.853	7.39
496.31	8.51
496.766	8.97
497.222	7.68
497.679	6.51
498.135	5.89
498.591	4.95
499.048	6.53
499.504	7.25
499.96	6.72
500.416	7.13
500.872	6.33
501.329	6.73
501.785	7.72
502.241	5.74
502.697	8.34
503.153	7.02
503.609	7.73
504.065	6.76
504.521	6.97
504.977	8.67
505.432	4.96
505.888	5.97
506.344	6.7
506.8	8.15
507.256	8.62
507.711	7.25
508.167	8.12
508.623	6.7
509.078	8.15
509.534	7.65
509.99	7.81
510.445	6.87
510.901	6.22
511.356	7.17
511.812	8.42
512.267	6.17
512.722	6.54
513.178	7.19
513.633	6.56
514.089	8.31
514.544	8.2
514.999	6.61
515.454	7.82
515.91	8.14
516.365	7.28
516.82	6.97
517.275	7.3
517.73	8.5
518.185	7.78
518.64	8.91
519.095	7.8
519.55	6.78
520.005	7.65
520.46	6.5
520.915	6.99
521.37	7.07
521.825	6.73
522.28	6.65
522.734	7.42
523.189	8.26
523.644	7.54
524.099	7.62
524.553	6.64
525.008	8.53
525.462	8.17
525.917	8.09
526.372	6.92
526.826	7.12
527.281	9.56
527.735	6.91
528.19	7.65
528.644	8.18
529.098	6.59
529.553	7.81
530.007	8.21
530.461	6.97
530.916	6.5
531.37	7.33
531.824	7.06
532.278	6.45
532.732	6.79
533.186	7.14
533.641	6.83
534.095	8.87
534.549	7.82
535.003	7.01
535.457	9.25
535.911	7.26
536.365	7.58
536.818	8.31
537.272	7.96
537.726	8.59
538.18	8.15
538.634	7.43
539.087	8.11
539.541	7.99
539.995	7.49
540.449	7.1
540.902	7.43
541.356	7.23
541.809	7.81
542.263	7.23
542.716	7.29
543.17	6.31
543.623	9.02
544.077	8.65
544.53	7.43
544.984	7.36
545.437	6.93
545.89	8.13
546.344	6.95
546.797	8.38
547.25	8.9
547.703	8.36
548.157	6.72
548.61	8.83
549.063	8.68
549.516	8.18
549.969	8.92
550.422	8.22
550.875	8.55
551.328	8.2
551.781	7.95
552.234	8.39
552.687	8.51
553.14	7.99
553.592	7.15
554.045	8.24
554.498	8.37
554.951	7.21
555.404	7.9
555.856	9.3
556.309	7.98
556.762	8.62
557.214	7.03
557.667	8.55
558.119	8.49
558.572	7.63
559.024	8.17
559.477	8.19
559.929	7.69
560.382	7.2
560.834	8.18
561.286	7.65
561.739	7.8
562.191	8.11
562.643	8.13
563.095	7.97
563.548	8.18
564	8
564.452	8.72
564.904	7.98
565.356	7.85
565.808	8.4
566.26	8.48
566.712	8.07
567.164	9.46
567.616	7.19
568.068	8.84
568.52	8.86
568.972	8.47
569.424	7.26
569.876	8.23
570.327	7.77
570.779	8.07
571.231	7.93
571.682	7.55
572.134	8.75
572.586	8.88
573.037	9.12
573.489	7.8
573.941	7.98
574.392	7.95
574.844	8
575.295	8.85
575.746	8.17
576.198	8.33
576.649	7.7
577.101	7.9
577.552	8.78
578.003	7.48
578.454	8.82
578.906	8.19
579.357	7.93
579.808	8.28
580.259	8.2
580.71	8.91
581.161	8.64
581.612	7.98
582.064	7.97
582.515	7.98
582.965	8.33
583.416	8.74
583.867	8.49
584.318	8.18
584.769	9.57
585.22	7.8
585.671	8.47
586.122	8.63
586.572	8.98
587.023	8.64
587.474	7.91
587.924	9.18
588.375	7.59
588.826	8.21
589.276	8.39
589.727	7.27
590.177	8.37
590.628	8.33
591.078	8.25
591.529	8.75
591.979	8.85
592.429	7.9
592.88	8.91
593.33	7.91
593.78	8.42
594.231	8.35
594.681	7.79
595.131	7.95
595.581	9.15
596.031	8.98
596.481	7
596.932	9.97
597.382	8.57
597.832	8.31
598.282	8.07
598.732	8.83
599.182	8.07
599.632	8.48
600.081	8.41
600.531	8.87
600.981	8.1
601.431	8.1
601.881	8.27
602.33	9.04
602.78	8.41
603.23	8.92
603.679	9.14
604.129	9.06
604.579	8.3
605.028	8.83
605.478	8.48
605.927	8.78
606.377	8.73
606.826	8.37
607.276	8.04
607.725	9.24
608.175	9.16
608.624	9.15
609.073	8.69
609.522	9.13
609.972	8.05
610.421	9.08
610.87	8.93
611.319	8.68
611.768	8.62
612.218	8.89
612.667	8.44
613.116	8.56
613.565	9.61
614.014	8.56
614.463	8.19
614.912	8.75
615.361	8.81
615.81	8.98
616.258	8.85
616.707	8.62
617.156	9.58
617.605	8.49
618.054	9.4
618.502	8.27
618.951	9.09
619.4	8.45
619.848	8.72
620.297	8.91
620.745	9.51
621.194	8.94
621.642	8.96
622.091	8.55
622.539	9.62
622.988	8.77
623.436	8.9
623.885	8.87
624.333	9.7
624.781	9.36
625.23	9.06
625.678	8.52
626.126	9.45
626.574	9.05
627.022	8.45
627.471	8.94
627.919	8.73
628.367	9.5
628.815	9.21
629.263	8.33
629.711	8.91
630.159	9.43
630.607	8.76
631.055	8.77
631.503	9.15
631.95	9.12
632.398	8.92
632.846	9.07
633.294	9.11
633.742	8.98
634.189	9.75
634.637	9.3
635.085	9.02
635.532	8.85
635.98	9.04
636.427	9.03
636.875	9.04
637.323	9.05
637.77	8.92
638.217	9.2
638.665	8.87
639.112	9.39
639.56	8.68
640.007	9.45
640.454	9.01
640.902	9.29
641.349	9.15
641.796	9.26
642.243	9.28
642.69	9.14
643.138	8.59
643.585	8.9
644.032	8.94
644.479	8.89
644.926	8.84
645.373	8.79
645.82	9.15
646.267	8.67
646.714	8.98
647.161	9.12
647.607	9.38
648.054	8.78
648.501	9.78
648.948	8.79
649.395	8.57
649.841	8.98
650.288	9.23
650.735	9.58
651.181	8.63
651.628	9.2
652.075	8.95
652.521	9.12
652.968	9.14
653.414	9.03
653.861	9.02
654.307	9.26
654.753	8.75
655.2	9.45
655.646	8.31
656.092	9.25
656.539	9.49
656.985	8.9
657.431	9.43
657.877	9.45
658.324	9.18
658.77	9.29
659.216	9.35
659.662	8.67
660.108	9.51
660.554	8.96
661	9.22
661.446	9.62
661.892	9.57
662.338	9.18
662.784	9.52
663.23	8.57
663.675	9.26
664.121	9.79
664.567	9.23
665.013	9.18
665.458	9.49
665.904	8.97
666.35	9.37
666.795	9.17
667.241	10.23
667.687	8.84
668.132	9.05
668.578	9.27
669.023	9.46
669.469	9.34
669.914	8.78
670.359	9.65
670.805	9.57
671.25	8.81
671.695	9.38
672.141	9.64
672.586	10.05
673.031	9.41
673.476	9.31
673.922	9.42
674.367	9.26
674.812	9.41
675.257	9.01
675.702	9.43
676.147	9.05
676.592	9.51
677.037	8.85
677.482	9.65
677.927	9.61
678.372	9.33
678.817	9.41
679.261	9.57
679.706	9.64
680.151	9.62
680.596	9.52
681.04	9.65
681.485	9.52
681.93	8.94
682.374	9.53
682.819	10.18
683.264	10.03
683.708	9.67
684.153	9.45
684.597	9.52
685.042	9.99
685.486	9.7
685.93	9.83
686.375	9.78
686.819	9.28
687.263	9.59
687.708	10.28
688.152	9.79
688.596	9.67
689.04	9.41
689.485	9.97
689.929	10.2
690.373	9.36
690.817	9.81
691.261	9.69
691.705	9.68
692.149	9.9
692.593	9.34
693.037	9.86
693.481	9.99
693.925	9.69
694.369	9.82
694.812	9.83
695.256	9.63
695.7	9.68
696.144	9.42
696.587	9.81
697.031	9.76
697.475	9.79
697.918	9.7
698.362	9.86
698.806	9.93
699.249	9.92
699.693	10.02
700.136	9.51
700.58	9.8
701.023	9.4
701.466	9.45
701.91	10.15
702.353	9.68
702.796	9.8
703.24	9.74
703.683	9.87
704.126	10.02
704.569	10.01
705.013	9.87
705.456	10.3
705.899	9.94
706.342	9.54
706.785	10.23
707.228	10.29
707.671	9.91
708.114	10.15
708.557	9.7
709	9.71
709.443	9.81
709.886	10.19
710.328	10.31
710.771	10.37
711.214	10.39
711.657	9.89
712.099	10.21
712.542	9.79
712.985	10.19
713.427	9.92
713.87	10.07
714.313	9.87
714.755	10.18
715.198	10.12
715.64	9.85
716.083	10.25
716.525	9.89
716.967	10.15
717.41	10.55
717.852	9.86
718.295	10.26
718.737	10.19
719.179	10.02
719.621	10.27
720.063	10.12
720.506	10.24
720.948	10.4
721.39	10.05
721.832	9.56
722.274	10.46
722.716	10.21
723.158	9.96
723.6	10.26
724.042	10.11
724.484	10.18
724.926	10.26
725.368	10.01
725.81	9.98
726.251	10.43
726.693	9.99
727.135	10.3
727.577	10.55
728.018	10.48
728.46	10.5
728.902	10.05
729.343	10.34
729.785	10.22
730.226	10.45
730.668	10.25
731.109	10.38
731.551	10.33
731.992	10.05
732.434	10.04
732.875	10.86
733.316	10.71
733.758	10.53
734.199	10.41
734.64	10.5
735.081	10.14
735.523	10.92
735.964	10.65
736.405	10.48
736.846	10.35
737.287	10.93
737.728	10.09
738.169	10.65
738.61	10.55
739.051	10.12
739.492	10.39
739.933	10.52
740.374	9.94
740.815	10.48
741.256	10.98
741.696	10.89
742.137	9.91
742.578	10.73
743.019	10.58
743.459	10.83
743.9	10.53
744.341	10.63
744.781	10.36
745.222	10.48
745.662	10.43
746.103	10.7
746.543	10.68
746.984	10.19
747.424	10.55
747.865	10.5
748.305	10.7
748.745	10.21
749.186	10.77
749.626	10.3
750.066	10.79
750.506	10.85
750.947	10.36
751.387	10.94
751.827	10.22
752.267	10.86
752.707	10.85
753.147	10.68
753.587	10.61
754.027	10.92
754.467	10.12
754.907	10.91
755.347	10.89
755.787	10.8
756.227	11.34
756.667	10.65
757.107	10.61
757.546	10.74
757.986	10.47
758.426	10.88
758.865	10.75
759.305	10.67
759.745	10.72
760.184	10.91
760.624	10.67
761.063	11.07
761.503	10.7
761.943	10.65
762.382	10.42
762.821	10.95
763.261	10.3
763.7	10.75
764.14	11.29
764.579	11.06
765.018	10.97
765.457	10.9
765.897	11.18
766.336	11.24
766.775	10.78
767.214	10.99
767.653	10.85
768.092	10.87
768.531	11.29
768.97	11.48
769.409	11.08
769.848	11.14
770.287	11.05
770.726	11.07
771.165	11.16
771.604	11.13
772.043	11.07
772.482	11.09
772.92	11.18
773.359	11.16
773.798	11.26
774.237	11.13
774.675	11.56
775.114	10.77
775.553	11.35
775.991	11.25
776.43	11.18
776.868	10.86
777.307	10.59
777.745	10.81
778.184	11.73
778.622	11.13
779.06	11.43
779.499	11.09
779.937	11.29
780.375	11.14
780.814	10.82
781.252	10.91
781.69	11.4
782.128	11.59
782.566	11.41
783.004	10.94
783.443	11.06
783.881	11.32
784.319	11.08
784.757	11.58
785.195	11.46
785.633	11.41
786.071	11.77
786.508	11.36
786.946	11.36
787.384	11.46
787.822	11.57
788.26	11.64
788.697	11.65
789.135	11.22
789.573	11.59
790.011	11.79
790.448	11.54
790.886	11.57
791.323	11.57
791.761	11.42
792.198	11.25
792.636	11.57
793.073	11.16
793.511	11.96
793.948	11.18
794.386	11.69
794.823	11.8
795.26	11.79
795.698	11.62
796.135	11.29
796.572	11.56
797.009	11.55
797.446	11.95
797.884	11.26
798.321	11.32
798.758	11.44
799.195	11.67
799.632	11.41
800.069	11.86
800.506	11.95
800.943	11.35
801.38	11.73
801.817	11.72
802.254	11.74
802.69	12.08
803.127	11.51
803.564	11.85
804.001	11.6
804.438	11.8
804.874	12.21
805.311	11.9
805.748	11.82
806.184	11.83
806.621	12
807.057	11.97
807.494	11.9
807.93	11.86
808.367	12.08
808.803	11.73
809.24	11.82
809.676	12.14
810.112	11.92
810.549	12.16
810.985	11.94
811.421	11.7
811.857	11.83
812.294	11.51
812.73	12.33
813.166	11.95
813.602	11.88
814.038	11.91
814.474	11.73
814.91	12.04
815.346	12.28
815.782	12.08
816.218	12.19
816.654	12.34
817.09	11.83
817.526	12.01
817.962	12.11
818.398	12.32
818.833	12.24
819.269	12.1
819.705	12.39
820.141	11.82
820.576	11.66
821.012	12.19
821.447	12.22
821.883	12.49
822.319	12.48
822.754	12.17
823.19	11.95
823.625	11.52
824.061	12.11
824.496	12.16
824.931	12.2
825.367	11.93
825.802	12.54
826.237	12.49
826.673	12.58
827.108	12.2
827.543	12.15
827.978	12.2
828.413	12.05
828.849	12.55
829.284	11.93
829.719	12.39
830.154	12.6
830.589	12.49
831.024	12.77
831.459	12.23
831.894	12.35
832.329	12.49
832.763	12.47
833.198	12.27
833.633	12.34
834.068	12.49
834.503	12.42
834.937	12.6
835.372	12.62
835.807	12.79
836.241	12.44
836.676	12.02
837.111	12.64
837.545	12.9
837.98	12.23
838.414	12.36
838.849	12.58
839.283	12.64
839.717	12.44
840.152	12.7
840.586	12.82
841.021	12.81
841.455	12.47
841.889	12.59
842.323	12.65
842.758	12.67
843.192	12.95
843.626	12.48
844.06	12.52
844.494	13.05
844.928	12.75
845.362	13.13
845.796	12.72
846.23	12.69
846.664	12.49
847.098	12.48
847.532	12.87
847.966	12.29
848.4	12.75
848.834	12.78
849.267	12.94
849.701	12.72
850.135	12.79
850.569	13.03
851.002	13.04
851.436	12.93
851.87	12.86
852.303	12.79
852.737	13.12
853.17	12.86
853.604	13.05
854.037	12.75
854.471	12.8
854.904	13.12
855.337	13.23
855.771	13.27
856.204	13.17
856.637	13.14
857.071	13.1
857.504	13.08
857.937	12.99
858.37	12.87
858.804	13.1
859.237	13.34
859.67	13.39
860.103	13.16
860.536	12.91
860.969	12.96
861.402	13.14
861.835	12.97
862.268	13.05
862.701	13.19
863.134	13.4
863.566	13.01
863.999	13.01
864.432	13.51
864.865	13.39
865.298	13.74
865.73	13.33
866.163	13.38
866.596	13.14
867.028	13.46
867.461	13.33
867.893	13.54
868.326	13.25
868.758	13.11
869.191	13.41
869.623	13.15
870.056	13.31
870.488	13.08
870.92	13.33
871.353	13.25
871.785	13.34
872.217	13.58
872.65	13.09
873.082	13.58
873.514	13.78
873.946	13.53
874.378	13.62
874.81	13.54
875.243	13.67
875.675	13.68
876.107	13.47
876.539	13.65
876.971	13.48
877.403	13.8
877.834	13.36
878.266	13.79
878.698	13.56
879.13	13.53
879.562	13.86
879.994	13.6
880.425	13.52
880.857	13.58
881.289	13.6
881.72	13.54
882.152	13.69
882.584	13.92
883.015	13.37
883.447	13.71
883.878	13.66
884.31	13.94
884.741	13.91
885.173	13.61
885.604	13.5
886.035	13.7
886.467	14.01
886.898	13.55
887.329	13.81
887.76	13.75
888.192	13.75
888.623	14.11
889.054	14.22
889.485	14.01
889.916	13.89
890.347	14.01
890.778	14.1
891.209	13.86
891.64	14.33
892.071	13.84
892.502	14.05
892.933	14.35
893.364	13.82
893.795	13.89
894.226	13.96
894.657	13.98
895.087	14.1
895.518	14.11
895.949	14.31
896.38	14.17
896.81	14.24
897.241	14.24
897.671	13.77
898.102	14.63
898.533	14.14
898.963	14.36
899.394	13.92
899.824	14.23
900.254	14.23
900.685	14.41
901.115	14.33
901.546	14.58
901.976	14.47
902.406	13.91
902.836	14.11
903.267	14.27
903.697	14.12
904.127	14.26
904.557	14.27
904.987	14.46
905.417	14.65
905.847	14.53
906.277	14.24
906.707	14.12
907.137	14.57
907.567	14.66
907.997	14.25
908.427	14.48
908.857	14.23
909.287	14.44
909.717	14.53
910.146	14.75
910.576	14.62
911.006	14.32
911.436	14.7
911.865	14.37
912.295	14.47
912.724	14.69
913.154	14.81
913.584	14.41
914.013	14.94
914.443	14.84
914.872	14.38
915.302	14.48
915.731	14.53
916.16	14.75
916.59	15.12
917.019	14.96
917.448	14.84
917.878	14.41
918.307	14.64
918.736	14.43
919.165	14.75
919.594	14.87
920.023	14.6
920.452	14.53
920.882	14.63
921.311	14.92
921.74	14.78
922.169	14.88
922.597	14.85
923.026	14.69
923.455	14.81
923.884	14.99
924.313	15.13
924.742	15.02
925.171	14.85
925.599	14.96
926.028	14.94
926.457	15.15
926.885	15.13
927.314	15.02
927.743	14.73
928.171	14.97
928.6	15.26
929.028	15.13
929.457	15.19
929.885	14.88
930.314	15.42
930.742	15.16
931.17	15.26
931.599	14.81
932.027	15.13
932.455	15.31
932.884	15.4
933.312	15.45
933.74	15.32
934.168	15.18
934.596	15.23
935.025	15.34
935.453	15.29
935.881	15.47
936.309	15.18
936.737	15.28
937.165	15.29
937.593	15.41
938.021	15.21
938.449	15.07
938.876	15
939.304	14.85
939.732	15.03
940.16	15.27
940.588	15.09
941.015	15.28
941.443	14.92
941.871	15.14
942.298	15.74
942.726	15.11
943.154	15.54
943.581	15.79
944.009	15.4
944.436	15.16
944.864	16.03
945.291	15.05
945.718	15.55
946.146	15.82
946.573	15.22
947.001	15.7
947.428	15.45
947.855	14.91
948.282	15.17
948.71	15.45
949.137	15.53
949.564	15.55
949.991	15.27
950.418	15.18
950.845	15.67
951.272	15.29
951.699	15.79
952.126	15.68
952.553	15.98
952.98	15.77
953.407	15.18
953.834	16.31
954.261	15.54
954.688	15.63
955.114	15.82
955.541	15.48
955.968	15.68
956.395	15.67
956.821	15.92
957.248	16.04
957.674	15.51
958.101	15.58
958.528	15.55
958.954	16.17
959.381	16.15
959.807	15.89
960.234	15.61
960.66	15.58
961.086	15.81
961.513	16.21
961.939	16.31
962.365	16.44
962.792	15.8
963.218	16.31
963.644	15.86
964.07	16
964.496	16.1
964.923	16.14
965.349	15.86
965.775	15.83
966.201	15.87
966.627	16.05
967.053	15.93
967.479	15.9
967.905	16.3
968.331	16.04
968.756	16.08
969.182	15.95
969.608	16.11
970.034	15.94
970.46	16.13
970.885	16.15
971.311	16.06
971.737	15.95
972.162	16.1
972.588	16
973.014	16.19
973.439	16.21
973.865	16.14
974.29	16.29
974.716	16.43
975.141	16.31
975.567	16.26
975.992	15.98
976.417	16.26
976.843	16.35
977.268	16.34
977.693	16.03
978.119	16.3
978.544	16.32
978.969	16.3
979.394	16.4
979.819	16.14
980.244	16.19
980.669	16.36
981.095	16.35
981.52	16.2
981.945	16.35
982.369	16.69
982.794	16.57
983.219	16.32
983.644	16.46
984.069	16.43
984.494	16.42
984.919	16.56
985.343	16.65
985.768	16.43
986.193	16.5
986.618	16.45
987.042	16.67
987.467	16.51
987.891	16.58
988.316	16.83
988.741	16.59
989.165	16.78
989.59	16.87
990.014	16.91
990.438	16.56
990.863	16.47
991.287	16.75
991.712	16.63
992.136	16.81
992.56	16.58
992.984	16.78
993.409	16.66
993.833	16.91
994.257	16.62
994.681	16.82
995.105	16.75
995.529	16.92
995.953	17.05
996.377	16.99
996.801	16.89
997.225	16.87
997.649	17.21
998.073	17.15
998.497	17.07
998.921	17.01
999.345	17.33
999.769	17.02
1000.192	17.18
1000.616	17.21
1001.04	17.21
1001.464	17
1001.887	17.2
1002.311	17.21
1002.734	17.18
1003.158	17.13
1003.582	17.42
1004.005	17.33
1004.429	17.65
1004.852	17.69
1005.275	17.09
1005.699	17.43
1006.122	17.21
1006.546	17.35
1006.969	17.64
1007.392	17.65
1007.815	17.41
1008.239	17.45
1008.662	17.13
1009.085	17.72
1009.508	17.26
1009.931	17.45
1010.354	17.42
1010.778	17.64
1011.201	17.41
1011.624	17.45
1012.047	17.32
1012.469	17.91
1012.892	17.42
1013.315	17.57
1013.738	17.83
1014.161	17.62
1014.584	17.77
1015.007	17.63
1015.429	17.66
1015.852	17.93
1016.275	17.86
1016.697	17.94
1017.12	17.4
1017.543	18
1017.965	17.89
1018.388	18.04
1018.81	17.98
1019.233	17.64
1019.655	18.16
1020.078	17.88
1020.5	17.81
1020.922	17.99
1021.345	18.23
1021.767	17.94
1022.189	17.82
1022.612	17.97
1023.034	18.17
1023.456	18.42
1023.878	17.85
1024.301	18.14
1024.723	18.22
1025.145	17.96
1025.567	18.34
1025.989	18.14
1026.411	18.23
1026.833	17.91
1027.255	18.08
1027.677	18.43
1028.099	18.2
1028.52	17.95
1028.942	18.35
1029.364	18.18
1029.786	18.3
1030.208	18.09
1030.629	18.16
1031.051	18.42
1031.473	18.27
1031.894	18.13
1032.316	18.6
1032.738	18.42
1033.159	18.51
1033.581	18.17
1034.002	18.55
1034.424	18.3
1034.845	18.35
1035.267	18.42
1035.688	18
1036.109	18.49
1036.531	18.39
1036.952	18.63
1037.373	18.69
1037.794	18.47
1038.216	18.6
1038.637	18.5
1039.058	18.06
1039.479	18.48
1039.9	18.52
1040.321	18.85
1040.742	18.62
1041.163	18.5
1041.584	18.83
1042.005	18.85
1042.426	18.79
1042.847	18.75
1043.268	18.85
1043.689	18.9
1044.11	18.96
1044.53	18.85
1044.951	18.84
1045.372	18.54
1045.793	19.02
1046.213	19.04
1046.634	18.67
1047.055	18.6
1047.475	18.97
1047.896	18.98
1048.316	18.6
1048.737	18.83
1049.157	19.14
1049.578	18.79
1049.998	18.62
1050.419	19.03
1050.839	18.96
1051.259	19.27
1051.68	18.97
1052.1	18.84
1052.52	19.46
1052.94	18.83
1053.361	19.37
1053.781	18.08
1054.201	18.92
1054.621	19.36
1055.041	18.73
1055.461	18.68
1055.881	19.29
1056.301	19.05
1056.721	19.73
1057.141	19.08
1057.561	18.9
1057.981	18.88
1058.401	19.04
1058.82	18.49
1059.24	19.39
1059.66	19.27
1060.08	19.07
1060.499	18.7
1060.919	19.77
1061.339	19.48
1061.758	19.19
1062.178	18.55
1062.598	19.72
1063.017	19.4
1063.437	19.13
1063.856	19.34
1064.276	19.58
1064.695	19.62
1065.114	19.28
1065.534	19.15
1065.953	19.29
1066.372	19.28
1066.792	18.85
1067.211	19.16
1067.63	20.1
1068.049	19.94
1068.469	19.8
1068.888	19.75
1069.307	19.35
1069.726	19.03
1070.145	19.65
1070.564	18.92
1070.983	19.62
1071.402	19.67
1071.821	19.36
1072.24	19.7
1072.659	19.71
1073.078	19.59
1073.496	20.1
1073.915	19.12
1074.334	19.6
1074.753	19.1
1075.171	19.95
1075.59	19.97
1076.009	19.7
1076.427	19.38
1076.846	19.96
1077.265	20.31
1077.683	19.53
1078.102	19.31
1078.52	20.22
1078.939	20.11
1079.357	19.97
1079.776	19.84
1080.194	19.22
1080.612	18.99
1081.031	19.72
1081.449	19.89
1081.867	21.01
1082.285	20.2
1082.704	19.95
1083.122	18.64
1083.54	20.52
1083.958	19.99
1084.376	19.75
1084.794	20.47
1085.212	19.96
1085.63	20.09
1086.048	19.99
1086.466	19.73
1086.884	20.33
1087.302	20.03
1087.72	19.54
1088.138	19.64
1088.555	19.8
1088.973	19.74
1089.391	20.34
1089.809	20.38
1090.226	20.23
1090.644	19.52
1091.062	20.1
1091.479	20.02
1091.897	21.42
1092.314	20.37
1092.732	20.57
1093.15	21.18
1093.567	19.65
1093.984	20.17
1094.402	19.83
1094.819	21.16
1095.237	20.29
1095.654	19.81
1096.071	20.64
1096.488	19.87
1096.906	21.48
1097.323	19.87
1097.74	20.29
1098.157	20.47
1098.574	20.45
1098.991	20.88
1099.409	19.96
1099.826	19.88
1100.243	19.71
1100.66	20.13
1101.077	20.21
1101.494	21.01
1101.91	21.23
1102.327	18.91
1102.744	21.79
1103.161	20.88
1103.578	19.66
1103.994	21.13
1104.411	20.69
1104.828	21.47
1105.245	19.03
1105.661	19.95
1106.078	20.32
1106.494	20.88
1106.911	19.68
1107.328	21.1
1107.744	21
1108.161	20.01
1108.577	19.45
1108.993	20.79
1109.41	19.28
1109.826	20.87
1110.242	18.98
1110.659	18.81
1111.075	20.95
1111.491	20.2
1111.908	21.13
1112.324	21.08
1112.74	36.51
1113.156	20.99
1113.572	19.75
1113.988	21.11
1114.404	22.68
1114.82	19.68
1115.236	20.02
1115.652	20.66
1116.068	18.22
1116.484	17.34
1116.9	19.36
1117.316	19.7
1117.732	30.88
1118.147	25.61
1118.563	21.43
1118.979	93.75
