Data from JCR0007_YellowVentral_Reflection_00002.txt Node
Date: Wed Jul 22 15:47:06 ACST 2020
User: Stacey Dix
Spectrometer: MAYP113282
Scans to average: 1
Trigger mode: 0
Integration Time (sec): 1.000000E-1
Electric dark correction enabled: true
Boxcar width: 0
XAxis mode: Wavelengths
Number of Pixels in Spectrum: 2068
>>>>>Begin Spectral Data<<<<<
198.791	-116
199.266	257.89
199.74	47.83
200.215	28
200.69	-8.39
201.164	52.09
201.639	78.85
202.114	44.05
202.588	20.5
203.063	36.96
203.537	39.37
204.012	24.42
204.486	59.43
204.961	70.2
205.435	40.15
205.909	60.21
206.384	56.36
206.858	74.38
207.332	50.68
207.807	43.81
208.281	69.79
208.755	60.2
209.229	73.57
209.703	45.32
210.177	55.63
210.651	36.46
211.126	8.36
211.6	43.8
212.074	60.15
212.548	35.06
213.021	41.75
213.495	44.11
213.969	48.09
214.443	49.18
214.917	35.76
215.391	29.12
215.864	28.05
216.338	12.8
216.812	21.83
217.286	34.23
217.759	21.37
218.233	35.6
218.706	28.16
219.18	25.91
219.654	29.25
220.127	44.28
220.6	49.91
221.074	20.94
221.547	26.68
222.021	11.42
222.494	31.91
222.967	32.8
223.441	26.94
223.914	44.71
224.387	16.41
224.86	31.54
225.334	23.13
225.807	15.88
226.28	27.01
226.753	17.98
227.226	22.79
227.699	24.37
228.172	21.31
228.645	19.69
229.118	20.38
229.591	22.18
230.064	22.88
230.537	17.56
231.01	24.73
231.482	14.11
231.955	19.84
232.428	18.35
232.901	15.95
233.373	21.76
233.846	11.61
234.319	17.29
234.791	18.62
235.264	17.73
235.736	15.53
236.209	18.35
236.681	21.56
237.154	15.65
237.626	14.56
238.099	16.29
238.571	17.01
239.044	14
239.516	16.73
239.988	12.94
240.46	13.6
240.933	16.74
241.405	15.66
241.877	14.51
242.349	14.14
242.821	14.68
243.293	15.45
243.765	13.67
244.237	12.83
244.71	14.06
245.181	17.42
245.653	14.38
246.125	14.27
246.597	14.29
247.069	12.92
247.541	15.63
248.013	14.48
248.485	16.15
248.956	14.95
249.428	15.3
249.9	12.66
250.371	13.17
250.843	14.09
251.315	15.14
251.786	12
252.258	12.56
252.729	13.03
253.201	13.81
253.672	13.6
254.144	12.02
254.615	13.04
255.086	11.46
255.558	12.24
256.029	12.75
256.5	12.67
256.972	12.55
257.443	14.03
257.914	11.56
258.385	12.06
258.856	11.79
259.327	11.56
259.799	12.12
260.27	11.54
260.741	11.99
261.212	12.26
261.683	13.08
262.154	12.51
262.624	10.81
263.095	10.47
263.566	11.99
264.037	11.48
264.508	11.6
264.979	10.89
265.449	12.09
265.92	11.28
266.391	10.87
266.861	11.73
267.332	12.23
267.803	11.93
268.273	12.16
268.744	12.72
269.214	10.64
269.685	12.48
270.155	10.81
270.626	11.8
271.096	14.81
271.566	13.07
272.037	10.67
272.507	11.98
272.977	11.16
273.448	9.4
273.918	12.42
274.388	13.37
274.858	12.78
275.328	12.12
275.798	9.7
276.268	13
276.738	11.16
277.208	10.22
277.678	12.17
278.148	10.92
278.618	12.37
279.088	11.42
279.558	10.68
280.028	12.57
280.498	11.67
280.968	10.44
281.437	12.43
281.907	9.43
282.377	11.06
282.847	12.94
283.316	10.97
283.786	10.43
284.255	11.28
284.725	11.19
285.194	10.29
285.664	10.13
286.133	10.99
286.603	11.25
287.072	9.58
287.542	11.64
288.011	11.72
288.48	10.91
288.95	9.95
289.419	8.74
289.888	11.12
290.357	11.5
290.827	11.09
291.296	9.76
291.765	10.98
292.234	11
292.703	11.35
293.172	12.08
293.641	11.21
294.11	12.06
294.579	10.03
295.048	12.16
295.517	11.22
295.986	12.38
296.455	11.27
296.923	12.19
297.392	11.35
297.861	12.18
298.33	10.4
298.798	12
299.267	12.16
299.736	10.58
300.204	10.98
300.673	11.14
301.141	11.12
301.61	11.77
302.079	11.15
302.547	10.39
303.015	11.23
303.484	11.33
303.952	9.82
304.421	10.53
304.889	11.11
305.357	12.18
305.825	11.37
306.294	12.42
306.762	12.8
307.23	11.31
307.698	12.22
308.166	12.31
308.634	10.53
309.103	12.63
309.571	11.85
310.039	12.09
310.507	11.62
310.975	13.71
311.442	11.77
311.91	11.75
312.378	10.76
312.846	12.33
313.314	11.97
313.782	13
314.249	12.26
314.717	13.49
315.185	12.24
315.652	12.16
316.12	10.88
316.588	11.42
317.055	11.56
317.523	12.3
317.99	12.66
318.458	12.37
318.925	12.66
319.393	11.53
319.86	12.13
320.328	11.31
320.795	12.27
321.262	12.93
321.73	11.98
322.197	13.9
322.664	10.76
323.131	13.38
323.598	14.46
324.066	13.61
324.533	12.77
325	14.2
325.467	13.59
325.934	13.1
326.401	13.82
326.868	14.83
327.335	14.2
327.802	13.72
328.269	14.51
328.735	14.86
329.202	15.63
329.669	16.42
330.136	15.26
330.603	15.97
331.069	15.96
331.536	16.91
332.003	16.72
332.469	17.3
332.936	15.65
333.402	16.1
333.869	17.45
334.336	16.87
334.802	15.75
335.268	17.27
335.735	18.16
336.201	16.98
336.668	16.44
337.134	17.28
337.6	19.49
338.067	16.92
338.533	17.47
338.999	17.85
339.465	18.43
339.931	16.72
340.398	16.79
340.864	17.38
341.33	16.94
341.796	16.89
342.262	17.67
342.728	17.12
343.194	17
343.66	17.01
344.126	17.03
344.592	17.25
345.057	16.98
345.523	16.72
345.989	19
346.455	17.21
346.921	18.23
347.386	17.12
347.852	17.31
348.318	16.81
348.783	17.69
349.249	16.88
349.714	17.54
350.18	18.34
350.645	18.18
351.111	17.89
351.576	15.67
352.042	16.28
352.507	16.73
352.973	18.25
353.438	17.25
353.903	18.22
354.369	16.84
354.834	18.76
355.299	18
355.764	17.76
356.229	17.2
356.695	16.48
357.16	15.96
357.625	15.9
358.09	18.28
358.555	17.49
359.02	18.71
359.485	16.61
359.95	18.86
360.415	15.48
360.879	17.9
361.344	17.19
361.809	18.43
362.274	16.84
362.739	17.63
363.203	19
363.668	18.23
364.133	18.93
364.597	18.74
365.062	17.82
365.527	18.17
365.991	19.06
366.456	18.7
366.92	16.37
367.385	17.2
367.849	18.85
368.314	18.27
368.778	17.18
369.242	19.47
369.707	19.39
370.171	17.6
370.635	18.25
371.1	16.73
371.564	18.52
372.028	18.33
372.492	16.81
372.956	18.17
373.42	18.22
373.884	17.82
374.348	18.2
374.812	18.47
375.276	18.29
375.74	17.73
376.204	18.59
376.668	18.1
377.132	17.87
377.596	19.78
378.06	18.58
378.524	18.16
378.987	17.65
379.451	16.49
379.915	18.66
380.378	17.91
380.842	18.15
381.306	19.31
381.769	18.98
382.233	18.59
382.696	15.81
383.16	20.28
383.623	18.16
384.087	18.04
384.55	17.24
385.014	18.06
385.477	18.81
385.94	20.56
386.404	16.53
386.867	19.52
387.33	19.36
387.793	19.2
388.256	18.42
388.72	17.7
389.183	19.28
389.646	18.43
390.109	18.92
390.572	19.19
391.035	17.71
391.498	17.78
391.961	18.35
392.424	19.44
392.887	18.14
393.35	17.93
393.812	17.03
394.275	18.26
394.738	18.59
395.201	18.05
395.664	19.61
396.126	18.47
396.589	18.32
397.052	17.35
397.514	19.39
397.977	18.09
398.439	18.98
398.902	17.03
399.364	18.92
399.827	17.54
400.289	18.43
400.752	18.91
401.214	17.85
401.676	17.61
402.139	17.72
402.601	16.91
403.063	16.71
403.525	17.82
403.988	18.51
404.45	19.08
404.912	17.55
405.374	17.33
405.836	16.59
406.298	18.21
406.76	17.27
407.222	17.41
407.684	16.54
408.146	17.43
408.608	18.17
409.07	19.23
409.532	16.44
409.994	17.45
410.456	17.76
410.917	16.6
411.379	17.54
411.841	17.17
412.303	18.61
412.764	18.64
413.226	16.22
413.687	16.57
414.149	17.19
414.611	18.48
415.072	16.19
415.534	17.32
415.995	17.01
416.457	16.35
416.918	17.95
417.379	15.22
417.841	17.49
418.302	17.42
418.763	17.7
419.225	18.42
419.686	17.69
420.147	17.06
420.608	17.1
421.069	18.3
421.53	16.34
421.991	16.48
422.453	16.91
422.914	17.27
423.375	17.82
423.836	17.68
424.297	18.42
424.757	17.88
425.218	19.08
425.679	17.46
426.14	18.12
426.601	16.99
427.062	19.7
427.522	18.68
427.983	18.28
428.444	18.22
428.904	18.91
429.365	18.68
429.826	18.36
430.286	16.37
430.747	16.58
431.207	22.33
431.668	15.62
432.128	16.78
432.589	19.66
433.049	18.35
433.509	19.46
433.97	16.69
434.43	21.63
434.89	18.39
435.351	18.78
435.811	19.33
436.271	19.32
436.731	20.06
437.191	20.26
437.651	19.09
438.112	18.66
438.572	19.32
439.032	18.8
439.492	19.32
439.952	21.1
440.412	16.67
440.871	22.04
441.331	19.23
441.791	18.88
442.251	20.28
442.711	20.45
443.171	20.63
443.63	20.68
444.09	21.33
444.55	19.44
445.009	20.33
445.469	18.14
445.929	19.58
446.388	20.01
446.848	21.49
447.307	21.31
447.767	18.25
448.226	20.24
448.686	18.81
449.145	18.47
449.604	18.34
450.064	20.43
450.523	20.64
450.982	19.48
451.442	22.96
451.901	19.06
452.36	21.41
452.819	21.3
453.278	20.7
453.737	20.1
454.197	19.37
454.656	21.91
455.115	21.91
455.574	19.89
456.033	20.82
456.492	21.7
456.95	23.82
457.409	22.17
457.868	22.18
458.327	20.23
458.786	20.99
459.245	20.92
459.703	19.97
460.162	21.03
460.621	21.5
461.079	20.85
461.538	21.61
461.997	20.33
462.455	21.43
462.914	22.72
463.372	23.92
463.831	21.3
464.289	21.86
464.748	21.65
465.206	24.85
465.664	20.61
466.123	22.11
466.581	21.62
467.039	20.57
467.497	24.33
467.956	25.08
468.414	23.82
468.872	23.32
469.33	21.92
469.788	20.67
470.246	21.45
470.704	22.41
471.162	21.29
471.62	24.81
472.078	23.25
472.536	22.64
472.994	21.3
473.452	22.92
473.91	25.44
474.368	23.38
474.826	23.74
475.283	24.88
475.741	25.06
476.199	25.37
476.656	23.51
477.114	23.87
477.572	24.76
478.029	25.19
478.487	25.5
478.944	25.11
479.402	26.79
479.859	25.91
480.317	25.33
480.774	25.09
481.232	25.06
481.689	24.32
482.146	24.55
482.604	27.36
483.061	23.68
483.518	24.86
483.975	24.86
484.433	24.1
484.89	28.22
485.347	22.74
485.804	27.86
486.261	24.53
486.718	25.91
487.175	26.18
487.632	27.3
488.089	25.25
488.546	29.22
489.003	24
489.46	30.78
489.917	26.57
490.373	26.58
490.83	28.07
491.287	27.62
491.744	25.51
492.2	27.66
492.657	26.64
493.114	26.86
493.57	25.01
494.027	30.74
494.484	26.73
494.94	26.23
495.397	26.24
495.853	28.3
496.31	27.15
496.766	29.37
497.222	26.91
497.679	28.82
498.135	28.91
498.591	28.17
499.048	28.06
499.504	27.23
499.96	28.83
500.416	29.38
500.872	28.37
501.329	25.3
501.785	28.37
502.241	27.44
502.697	27
503.153	28.96
503.609	27.35
504.065	29.11
504.521	26.42
504.977	27.01
505.432	28.7
505.888	30.29
506.344	28.42
506.8	27.63
507.256	30.18
507.711	27.84
508.167	29.35
508.623	28.44
509.078	30.9
509.534	29.97
509.99	29.58
510.445	29.33
510.901	28.94
511.356	30.06
511.812	29.99
512.267	30.37
512.722	30.24
513.178	28.42
513.633	27.75
514.089	31.01
514.544	30.3
514.999	29.71
515.454	30.84
515.91	30.61
516.365	29.41
516.82	29.84
517.275	31.67
517.73	31.92
518.185	29.5
518.64	31.04
519.095	29.27
519.55	30.52
520.005	31.03
520.46	30.05
520.915	32.1
521.37	31.59
521.825	31.07
522.28	33.19
522.734	31.63
523.189	32.27
523.644	30.75
524.099	30.28
524.553	32.95
525.008	32.08
525.462	29.77
525.917	31.26
526.372	31.78
526.826	31.67
527.281	32.94
527.735	31.92
528.19	29.54
528.644	33.35
529.098	32.25
529.553	32.33
530.007	33.52
530.461	34.98
530.916	32.63
531.37	32.69
531.824	31.96
532.278	32.36
532.732	34.21
533.186	30.89
533.641	32.6
534.095	34.66
534.549	31.97
535.003	34.42
535.457	33.08
535.911	34.98
536.365	35.52
536.818	34.18
537.272	34.02
537.726	34.84
538.18	35.02
538.634	35.17
539.087	32.96
539.541	34.15
539.995	36.15
540.449	35.39
540.902	35.57
541.356	35.48
541.809	36.99
542.263	35.08
542.716	34.69
543.17	34.11
543.623	35.94
544.077	36.11
544.53	36.27
544.984	35.91
545.437	36.29
545.89	38.25
546.344	36.71
546.797	38.61
547.25	36.38
547.703	37.21
548.157	38.93
548.61	37.3
549.063	38.75
549.516	37.28
549.969	37.2
550.422	40.71
550.875	38
551.328	39.43
551.781	37.48
552.234	39.98
552.687	39.79
553.14	38.5
553.592	38.67
554.045	38.66
554.498	40.11
554.951	42.84
555.404	39.74
555.856	40.6
556.309	38.87
556.762	41.59
557.214	42.19
557.667	43.34
558.119	41.53
558.572	39.73
559.024	41.07
559.477	39.89
559.929	40.92
560.382	42.54
560.834	40.9
561.286	41.84
561.739	41.95
562.191	43.9
562.643	42.57
563.095	41.71
563.548	42.62
564	41.58
564.452	42.81
564.904	39.35
565.356	42.59
565.808	43.24
566.26	40.99
566.712	43.64
567.164	40.44
567.616	42.3
568.068	43.54
568.52	42.09
568.972	41.4
569.424	42.15
569.876	41.03
570.327	44.05
570.779	42.62
571.231	42.79
571.682	40.92
572.134	42.67
572.586	41.69
573.037	41.41
573.489	42.01
573.941	41.73
574.392	42.2
574.844	41.57
575.295	41.99
575.746	41.23
576.198	40.98
576.649	39.28
577.101	41.3
577.552	41.09
578.003	42.63
578.454	41.87
578.906	42.66
579.357	40.87
579.808	40.93
580.259	40.95
580.71	40.83
581.161	43.12
581.612	42.16
582.064	42.09
582.515	42.98
582.965	39.89
583.416	42.46
583.867	43.3
584.318	42.53
584.769	44.59
585.22	44.09
585.671	43.19
586.122	44.38
586.572	44.35
587.023	43.15
587.474	43.92
587.924	43.58
588.375	42.85
588.826	46.57
589.276	43.02
589.727	44.65
590.177	44.18
590.628	44.4
591.078	45.7
591.529	45
591.979	46.1
592.429	46.08
592.88	44.98
593.33	45.08
593.78	43.58
594.231	45.46
594.681	45.24
595.131	45.77
595.581	46.56
596.031	44.65
596.481	44.57
596.932	46.33
597.382	46.01
597.832	44.75
598.282	45.72
598.732	46.04
599.182	43.24
599.632	47.02
600.081	44.85
600.531	44.07
600.981	46.18
601.431	43.77
601.881	44.07
602.33	44.77
602.78	44.92
603.23	45.08
603.679	46.69
604.129	44.58
604.579	43.18
605.028	45.3
605.478	45.66
605.927	43.9
606.377	45.29
606.826	45.77
607.276	45.13
607.725	46.68
608.175	44.88
608.624	45.18
609.073	44.82
609.522	44.84
609.972	45.4
610.421	47.65
610.87	44.19
611.319	44.48
611.768	46.54
612.218	45.06
612.667	46.79
613.116	45.42
613.565	45.91
614.014	45.56
614.463	46.38
614.912	45.37
615.361	46.41
615.81	44.86
616.258	43.02
616.707	45.62
617.156	46.41
617.605	44.64
618.054	46.21
618.502	45.55
618.951	44.85
619.4	45.5
619.848	44.63
620.297	46.19
620.745	44.96
621.194	45.56
621.642	46.08
622.091	46.63
622.539	46.36
622.988	45.98
623.436	44.52
623.885	45.59
624.333	46.2
624.781	45.74
625.23	45.12
625.678	46
626.126	44.89
626.574	46.16
627.022	44.55
627.471	47.1
627.919	46.21
628.367	45.67
628.815	44.15
629.263	46.48
629.711	46.35
630.159	45.89
630.607	46.93
631.055	46.83
631.503	46.25
631.95	46.68
632.398	46.94
632.846	45.61
633.294	46.29
633.742	45.7
634.189	46
634.637	45.35
635.085	45.44
635.532	46.53
635.98	45.03
636.427	46.07
636.875	45.34
637.323	46.34
637.77	46.52
638.217	45.09
638.665	45.8
639.112	46.73
639.56	46.19
640.007	47.01
640.454	45.21
640.902	46.25
641.349	45.98
641.796	43.59
642.243	46.76
642.69	46.77
643.138	45.89
643.585	45.5
644.032	46.59
644.479	45.32
644.926	46.18
645.373	45.84
645.82	44.92
646.267	45.48
646.714	46.57
647.161	45.99
647.607	46.86
648.054	46.55
648.501	44.76
648.948	46.04
649.395	46.61
649.841	46.97
650.288	46.62
650.735	45.48
651.181	45.51
651.628	46.88
652.075	46.4
652.521	45.59
652.968	46.02
653.414	45.96
653.861	45.08
654.307	45.48
654.753	45.88
655.2	46.65
655.646	46.43
656.092	45.31
656.539	48.52
656.985	46.89
657.431	46.96
657.877	45.83
658.324	46.88
658.77	47.01
659.216	46.4
659.662	46.85
660.108	44.88
660.554	46.32
661	47.6
661.446	46.71
661.892	46.4
662.338	45.82
662.784	48.04
663.23	46.59
663.675	47.06
664.121	48.59
664.567	47.86
665.013	46.05
665.458	46.29
665.904	46.68
666.35	46.23
666.795	46.24
667.241	46.53
667.687	46.26
668.132	45.85
668.578	46.2
669.023	46.51
669.469	46.64
669.914	46.48
670.359	47.04
670.805	47.29
671.25	45.42
671.695	45.96
672.141	48.1
672.586	46.39
673.031	46.69
673.476	46.92
673.922	47.65
674.367	46.22
674.812	47.47
675.257	46.12
675.702	46.76
676.147	47.77
676.592	45.59
677.037	45.91
677.482	45.45
677.927	45.97
678.372	46.68
678.817	46.21
679.261	47.79
679.706	46.52
680.151	47.06
680.596	45.46
681.04	46.19
681.485	47.61
681.93	47.93
682.374	46.62
682.819	47.37
683.264	46.06
683.708	46.54
684.153	48.1
684.597	46.83
685.042	47.81
685.486	46.04
685.93	46.21
686.375	47.34
686.819	47.6
687.263	45.86
687.708	46.52
688.152	46.64
688.596	47.16
689.04	47.44
689.485	47.63
689.929	46.83
690.373	46.39
690.817	46.58
691.261	47.04
691.705	46.97
692.149	47.33
692.593	46.69
693.037	46.18
693.481	46.59
693.925	46.82
694.369	47.57
694.812	47.25
695.256	46.11
695.7	46.25
696.144	47.33
696.587	45.69
697.031	47.43
697.475	47.02
697.918	47.14
698.362	46.02
698.806	47.76
699.249	47.28
699.693	46.53
700.136	46.42
700.58	47.12
701.023	47.22
701.466	45.89
701.91	46.12
702.353	46.58
702.796	47.72
703.24	46.02
703.683	46.74
704.126	46.49
704.569	47.04
705.013	46.49
705.456	45.24
705.899	47.49
706.342	46.61
706.785	46.31
707.228	47.76
707.671	46.79
708.114	48.13
708.557	45.78
709	46.16
709.443	46.2
709.886	45.85
710.328	47.85
710.771	46.87
711.214	47.08
711.657	46.17
712.099	47.57
712.542	46.32
712.985	48.14
713.427	45.52
713.87	46.22
714.313	46.71
714.755	47.06
715.198	46.85
715.64	46.83
716.083	48.5
716.525	47.64
716.967	46.09
717.41	45.5
717.852	46.02
718.295	46.66
718.737	47.2
719.179	47.23
719.621	45.68
720.063	47.43
720.506	46.18
720.948	46.2
721.39	47.7
721.832	45.34
722.274	46.86
722.716	46.67
723.158	46.97
723.6	46.63
724.042	47.44
724.484	46.06
724.926	47.65
725.368	46.63
725.81	46.79
726.251	46.54
726.693	47.89
727.135	49.07
727.577	46.75
728.018	44.35
728.46	45.74
728.902	47.19
729.343	45.11
729.785	45.81
730.226	46.32
730.668	46.95
731.109	47.93
731.551	45.1
731.992	46.57
732.434	47.23
732.875	48.9
733.316	46.74
733.758	45.47
734.199	46
734.64	46.55
735.081	45.39
735.523	46.11
735.964	45.49
736.405	47.8
736.846	45.87
737.287	45.01
737.728	45.61
738.169	47.61
738.61	45.96
739.051	47
739.492	48.48
739.933	45.98
740.374	45.89
740.815	46.79
741.256	45.66
741.696	46.66
742.137	46.26
742.578	46.92
743.019	46.32
743.459	46.36
743.9	46.38
744.341	46.53
744.781	45.63
745.222	45.89
745.662	45.58
746.103	46.62
746.543	46.94
746.984	45.61
747.424	45.96
747.865	47.23
748.305	46.28
748.745	46.56
749.186	45.98
749.626	46.48
750.066	45.52
750.506	46.22
750.947	46.38
751.387	46.18
751.827	45.52
752.267	46.64
752.707	46.22
753.147	46.58
753.587	46.94
754.027	47.02
754.467	47.62
754.907	46.78
755.347	45.89
755.787	47.01
756.227	46.13
756.667	46.92
757.107	44.89
757.546	46.23
757.986	46.86
758.426	46.05
758.865	45.18
759.305	45.95
759.745	46.01
760.184	45.71
760.624	45.22
761.063	46.95
761.503	46.47
761.943	46
762.382	46.19
762.821	46.42
763.261	46.8
763.7	46.26
764.14	47.36
764.579	45.94
765.018	45.76
765.457	46.82
765.897	45.95
766.336	47.19
766.775	46.04
767.214	45.39
767.653	46.12
768.092	46.34
768.531	47.9
768.97	46.47
769.409	45.84
769.848	46.34
770.287	45.68
770.726	45.91
771.165	46.17
771.604	47.26
772.043	46.74
772.482	46.06
772.92	46.06
773.359	46.69
773.798	45.63
774.237	46.48
774.675	46.55
775.114	46.58
775.553	45.46
775.991	47.14
776.43	45.87
776.868	45.7
777.307	46.79
777.745	46.45
778.184	45.86
778.622	46.02
779.06	45.61
779.499	46.61
779.937	45.87
780.375	45.49
780.814	47.09
781.252	45.94
781.69	48.31
782.128	46.79
782.566	45.37
783.004	45.96
783.443	45.98
783.881	45.91
784.319	45.36
784.757	45.5
785.195	45.28
785.633	46.16
786.071	46.4
786.508	46.63
786.946	46.13
787.384	46.91
787.822	45.21
788.26	46.86
788.697	46.11
789.135	46.04
789.573	46.31
790.011	45.84
790.448	45.52
790.886	46.04
791.323	46.53
791.761	45.54
792.198	46.32
792.636	45.98
793.073	45.96
793.511	45.52
793.948	46.67
794.386	45.34
794.823	46.47
795.26	46.26
795.698	45.5
796.135	45.94
796.572	46.4
797.009	45.69
797.446	45.74
797.884	46.06
798.321	45.28
798.758	46.37
799.195	45.66
799.632	45.53
800.069	46.67
800.506	45.98
800.943	46.29
801.38	45.74
801.817	45.81
802.254	46.05
802.69	46.16
803.127	46.09
803.564	45.5
804.001	46.3
804.438	45
804.874	46.67
805.311	45.9
805.748	46.11
806.184	45.99
806.621	46.18
807.057	46.08
807.494	45.76
807.93	45.77
808.367	45.79
808.803	45.06
809.24	45.82
809.676	45.96
810.112	45.22
810.549	45.77
810.985	46.35
811.421	46.3
811.857	46.13
812.294	45.45
812.73	44.95
813.166	45.81
813.602	45.42
814.038	45.55
814.474	45.9
814.91	46.44
815.346	46.55
815.782	45.81
816.218	46.64
816.654	44.68
817.09	45.58
817.526	45.85
817.962	44.99
818.398	45.6
818.833	45.62
819.269	45.72
819.705	46.38
820.141	45.27
820.576	45.62
821.012	45.26
821.447	46.45
821.883	45.94
822.319	45.48
822.754	45.95
823.19	45.25
823.625	44.98
824.061	45
824.496	45.94
824.931	45.53
825.367	45.74
825.802	45.43
826.237	45.61
826.673	46.27
827.108	45.36
827.543	45.23
827.978	46.43
828.413	45.72
828.849	44.99
829.284	46.11
829.719	45.57
830.154	45.51
830.589	45.81
831.024	45.69
831.459	46.8
831.894	45.83
832.329	45.53
832.763	45.5
833.198	45.86
833.633	45.42
834.068	45.6
834.503	45.82
834.937	45.01
835.372	45.9
835.807	44.76
836.241	44.92
836.676	46.12
837.111	45.94
837.545	45.07
837.98	44.8
838.414	45.04
838.849	45.43
839.283	45.74
839.717	45.64
840.152	45.61
840.586	45.58
841.021	44.76
841.455	44.87
841.889	45.07
842.323	45.99
842.758	45.66
843.192	45.41
843.626	45.97
844.06	45.61
844.494	45.04
844.928	44.7
845.362	45.06
845.796	45.59
846.23	45.6
846.664	45.01
847.098	45.78
847.532	45.86
847.966	45.5
848.4	45.21
848.834	45.29
849.267	46.3
849.701	46.3
850.135	45.95
850.569	45.36
851.002	45.47
851.436	45.48
851.87	45.57
852.303	45.37
852.737	45.24
853.17	45.9
853.604	46.07
854.037	45.81
854.471	45.79
854.904	46.18
855.337	45.66
855.771	44.86
856.204	45.49
856.637	45.28
857.071	45.4
857.504	45.33
857.937	45.19
858.37	46.36
858.804	45.62
859.237	45.42
859.67	45.92
860.103	45.39
860.536	45.38
860.969	46.77
861.402	44.95
861.835	45.65
862.268	45.17
862.701	45.27
863.134	44.83
863.566	45.78
863.999	45.61
864.432	44.92
864.865	45.2
865.298	44.92
865.73	45.79
866.163	45.18
866.596	45.58
867.028	45.03
867.461	45.63
867.893	45.84
868.326	45.04
868.758	45.28
869.191	45.84
869.623	45.77
870.056	44.76
870.488	45.05
870.92	45.46
871.353	45.24
871.785	45.41
872.217	45.19
872.65	44.84
873.082	44.52
873.514	45.32
873.946	45.69
874.378	45.46
874.81	45.3
875.243	45.78
875.675	44.96
876.107	44.72
876.539	45.71
876.971	45.07
877.403	45.05
877.834	45.03
878.266	44.91
878.698	44.73
879.13	44.71
879.562	43.92
879.994	44.87
880.425	45.48
880.857	44.44
881.289	45.63
881.72	44.99
882.152	44.85
882.584	45.73
883.015	45.03
883.447	44.05
883.878	44.3
884.31	44.93
884.741	44.57
885.173	44.73
885.604	45.2
886.035	44.87
886.467	45.16
886.898	45.6
887.329	45.32
887.76	44.81
888.192	44.07
888.623	45.47
889.054	44.58
889.485	45.33
889.916	45.35
890.347	45.03
890.778	45.42
891.209	44.39
891.64	45.24
892.071	44.44
892.502	45.07
892.933	44.25
893.364	44.76
893.795	45.32
894.226	44.37
894.657	45.13
895.087	44.66
895.518	44.22
895.949	44.75
896.38	44.29
896.81	45.38
897.241	44.17
897.671	44.67
898.102	45.49
898.533	44.64
898.963	44.91
899.394	44.87
899.824	45.05
900.254	44.38
900.685	44.22
901.115	45.38
901.546	44.38
901.976	44.16
902.406	44.77
902.836	45.06
903.267	44.92
903.697	44.82
904.127	44.32
904.557	44.54
904.987	44.65
905.417	44.47
905.847	44.23
906.277	44.67
906.707	45.35
907.137	44.65
907.567	44.54
907.997	44.06
908.427	44.57
908.857	44.5
909.287	44.38
909.717	44.69
910.146	45.21
910.576	44.14
911.006	44.02
911.436	45.39
911.865	44.56
912.295	44.65
912.724	45.11
913.154	44.51
913.584	44.82
914.013	44.86
914.443	44.88
914.872	44.07
915.302	43.99
915.731	43.83
916.16	44.39
916.59	43.65
917.019	44.65
917.448	44.64
917.878	44.53
918.307	44.99
918.736	44.9
919.165	43.82
919.594	44.65
920.023	44.1
920.452	44.41
920.882	43.95
921.311	43.8
921.74	44.41
922.169	44.36
922.597	45.75
923.026	44.14
923.455	44.56
923.884	44.78
924.313	44.71
924.742	44.07
925.171	44.62
925.599	44.96
926.028	44.47
926.457	44.09
926.885	44.86
927.314	44.1
927.743	44.33
928.171	43.27
928.6	44.28
929.028	44.42
929.457	44.1
929.885	44.12
930.314	43.51
930.742	43.78
931.17	44.84
931.599	43.83
932.027	44
932.455	43.52
932.884	44.49
933.312	44.39
933.74	44.46
934.168	44.15
934.596	43.66
935.025	44.29
935.453	43.83
935.881	43.59
936.309	43.77
936.737	43.88
937.165	43.15
937.593	44.17
938.021	43.37
938.449	43.46
938.876	43.31
939.304	44.19
939.732	44.14
940.16	43.19
940.588	44.02
941.015	42.91
941.443	43.52
941.871	44.71
942.298	43.34
942.726	43.53
943.154	44.51
943.581	43.64
944.009	44.16
944.436	42.83
944.864	43.77
945.291	43.8
945.718	43.46
946.146	44.39
946.573	43.59
947.001	44.12
947.428	44.44
947.855	43.33
948.282	43.29
948.71	43.14
949.137	43.91
949.564	44.2
949.991	43.82
950.418	44.77
950.845	44.44
951.272	43.94
951.699	43.54
952.126	44.01
952.553	44.53
952.98	43.58
953.407	44.11
953.834	43.25
954.261	44.42
954.688	43.79
955.114	43.89
955.541	44.32
955.968	42.42
956.395	43.77
956.821	44.08
957.248	43.95
957.674	44.01
958.101	43.68
958.528	43.85
958.954	43.88
959.381	43.45
959.807	43.36
960.234	44.29
960.66	42.89
961.086	44
961.513	43.57
961.939	43.55
962.365	43.11
962.792	43.25
963.218	43.44
963.644	44.12
964.07	43.11
964.496	44.22
964.923	43.69
965.349	43.49
965.775	43.82
966.201	44.14
966.627	43.78
967.053	43.92
967.479	43.28
967.905	43.61
968.331	43.67
968.756	42.84
969.182	43.35
969.608	43.05
970.034	43.41
970.46	43.3
970.885	42.95
971.311	43.5
971.737	43.08
972.162	43.16
972.588	43.58
973.014	43.41
973.439	43.47
973.865	43.39
974.29	43.32
974.716	43.34
975.141	43.2
975.567	43.37
975.992	43.41
976.417	43.23
976.843	43.37
977.268	42.79
977.693	43.21
978.119	43.42
978.544	42.94
978.969	43.63
979.394	43.28
979.819	43.37
980.244	43.47
980.669	43.18
981.095	43.51
981.52	43.16
981.945	43.39
982.369	44.34
982.794	43.02
983.219	43.63
983.644	43.41
984.069	43.23
984.494	42.92
984.919	43.03
985.343	43.14
985.768	43
986.193	43.51
986.618	43.39
987.042	43.35
987.467	43.02
987.891	42.92
988.316	43
988.741	43.32
989.165	43.04
989.59	43.67
990.014	43.52
990.438	42.53
990.863	43.31
991.287	43.7
991.712	43.61
992.136	43.12
992.56	42.88
992.984	42.85
993.409	43.17
993.833	42.51
994.257	42.69
994.681	43.27
995.105	43.15
995.529	43.14
995.953	42.77
996.377	43.9
996.801	43.15
997.225	42.33
997.649	43.38
998.073	42.88
998.497	43.6
998.921	42.91
999.345	43.44
999.769	42.7
1000.192	42.55
1000.616	43.12
1001.04	43.32
1001.464	42.93
1001.887	42.93
1002.311	42.59
1002.734	42.65
1003.158	43.04
1003.582	43.35
1004.005	43.16
1004.429	43.05
1004.852	42.68
1005.275	43.24
1005.699	42.33
1006.122	42.18
1006.546	43.08
1006.969	43.28
1007.392	42.48
1007.815	42.85
1008.239	42.76
1008.662	42.71
1009.085	42.46
1009.508	42.89
1009.931	42.74
1010.354	42.78
1010.778	43.24
1011.201	42.86
1011.624	42.68
1012.047	43.21
1012.469	43.14
1012.892	43.5
1013.315	42.75
1013.738	43.03
1014.161	43.39
1014.584	42.74
1015.007	43.25
1015.429	42.79
1015.852	42.68
1016.275	43
1016.697	43.06
1017.12	43.05
1017.543	43.4
1017.965	42.99
1018.388	42.76
1018.81	43.41
1019.233	42.69
1019.655	43.15
1020.078	42.38
1020.5	42.93
1020.922	43.33
1021.345	42.58
1021.767	43.26
1022.189	42.57
1022.612	42.84
1023.034	42.85
1023.456	42.99
1023.878	42.67
1024.301	43.17
1024.723	43.62
1025.145	43.25
1025.567	43.46
1025.989	43.19
1026.411	42.88
1026.833	42.62
1027.255	43.74
1027.677	43.34
1028.099	43.42
1028.52	42.99
1028.942	43.15
1029.364	42.78
1029.786	43.64
1030.208	42.94
1030.629	43.26
1031.051	43.42
1031.473	43.12
1031.894	43.15
1032.316	42.84
1032.738	43.36
1033.159	43.42
1033.581	42.53
1034.002	43.44
1034.424	43.77
1034.845	43.49
1035.267	42.35
1035.688	43.26
1036.109	42.96
1036.531	43.13
1036.952	42.99
1037.373	43.44
1037.794	42.87
1038.216	42.36
1038.637	42.64
1039.058	43.35
1039.479	43.12
1039.9	42.85
1040.321	42.73
1040.742	43.74
1041.163	42.45
1041.584	42.26
1042.005	43.79
1042.426	43.65
1042.847	42.37
1043.268	42.92
1043.689	43.66
1044.11	43.39
1044.53	42.75
1044.951	43.78
1045.372	43.32
1045.793	42.92
1046.213	43.24
1046.634	42.3
1047.055	43.4
1047.475	42.78
1047.896	43.83
1048.316	42.93
1048.737	43.21
1049.157	43.78
1049.578	43
1049.998	42.78
1050.419	42.51
1050.839	41.84
1051.259	42.79
1051.68	43.26
1052.1	43.3
1052.52	43.44
1052.94	42.57
1053.361	44.03
1053.781	43.16
1054.201	41.95
1054.621	43.49
1055.041	42.83
1055.461	43.68
1055.881	43.46
1056.301	43.2
1056.721	42.69
1057.141	42.1
1057.561	43.35
1057.981	43
1058.401	42.14
1058.82	43.41
1059.24	42.58
1059.66	43.46
1060.08	43.85
1060.499	44.4
1060.919	42.9
1061.339	42.92
1061.758	43.29
1062.178	43.84
1062.598	43.71
1063.017	42.73
1063.437	43.26
1063.856	43.48
1064.276	42.49
1064.695	42.25
1065.114	41.63
1065.534	42.43
1065.953	42.33
1066.372	42.25
1066.792	43.51
1067.211	43.63
1067.63	43.18
1068.049	44.13
1068.469	43.51
1068.888	43.24
1069.307	43.15
1069.726	43.3
1070.145	42.04
1070.564	42.12
1070.983	42.67
1071.402	43.63
1071.821	43.65
1072.24	43.1
1072.659	42.54
1073.078	43.18
1073.496	42.18
1073.915	43.24
1074.334	43.46
1074.753	41.28
1075.171	41.91
1075.59	43.13
1076.009	43.27
1076.427	42.65
1076.846	44.08
1077.265	42.63
1077.683	42.97
1078.102	43.43
1078.52	42.18
1078.939	42.35
1079.357	44.06
1079.776	43.23
1080.194	43.17
1080.612	43.01
1081.031	42.75
1081.449	42.71
1081.867	43.11
1082.285	42.56
1082.704	41.37
1083.122	42.83
1083.54	41.97
1083.958	43.05
1084.376	43.36
1084.794	41.33
1085.212	43.45
1085.63	41.9
1086.048	40.51
1086.466	43.44
1086.884	43.5
1087.302	42.02
1087.72	43.45
1088.138	42.64
1088.555	43.52
1088.973	42.43
1089.391	41.64
1089.809	42.54
1090.226	43.17
1090.644	42.42
1091.062	39.94
1091.479	42.3
1091.897	40.66
1092.314	41.41
1092.732	42.05
1093.15	41.41
1093.567	43.1
1093.984	41.69
1094.402	42.11
1094.819	43.79
1095.237	42.07
1095.654	42.63
1096.071	42.4
1096.488	44.11
1096.906	42.57
1097.323	43.09
1097.74	42.17
1098.157	42.07
1098.574	41.85
1098.991	41.06
1099.409	41.91
1099.826	43.54
1100.243	41.62
1100.66	44.25
1101.077	42.29
1101.494	41.76
1101.91	43.22
1102.327	40.32
1102.744	39.33
1103.161	43.13
1103.578	40.11
1103.994	43.6
1104.411	43.87
1104.828	41.76
1105.245	41.73
1105.661	40.57
1106.078	41.64
1106.494	39.72
1106.911	42.35
1107.328	40.23
1107.744	44.28
1108.161	40.9
1108.577	43.12
1108.993	39.23
1109.41	40.8
1109.826	43.8
1110.242	42.66
1110.659	40.38
1111.075	40.89
1111.491	38.16
1111.908	42.67
1112.324	43.07
1112.74	41.92
1113.156	39.06
1113.572	40.4
1113.988	37.9
1114.404	41.12
1114.82	40.68
1115.236	40.16
1115.652	49.03
1116.068	37.79
1116.484	41.64
1116.9	41.6
1117.316	41.57
1117.732	-44
1118.147	47.83
1118.563	271.43
1118.979	-63.64
