Data from JCR0015_White2_Reflection_00001.txt Node
Date: Thu Jul 23 15:23:06 ACST 2020
User: Stacey Dix
Spectrometer: MAYP113282
Scans to average: 1
Trigger mode: 0
Integration Time (sec): 1.000000E-1
Electric dark correction enabled: true
Boxcar width: 0
XAxis mode: Wavelengths
Number of Pixels in Spectrum: 2068
>>>>>Begin Spectral Data<<<<<
198.791	-1533.33
199.266	-66.67
199.74	66.67
200.215	47.62
200.69	27.31
201.164	32.89
201.639	46.01
202.114	50.12
202.588	25.51
203.063	30.58
203.537	60.22
204.012	34.46
204.486	20.62
204.961	67.43
205.435	10.3
205.909	55.44
206.384	22.22
206.858	37.8
207.332	12.75
207.807	58.09
208.281	31.14
208.755	31.23
209.229	18.83
209.703	33.03
210.177	58.69
210.651	44.28
211.126	28.05
211.6	47.2
212.074	34.94
212.548	46.19
213.021	62.88
213.495	50.95
213.969	39.22
214.443	23.77
214.917	57.21
215.391	44.18
215.864	67.06
216.338	52.82
216.812	48.3
217.286	67.99
217.759	38.31
218.233	60.61
218.706	26.97
219.18	51.79
219.654	59.63
220.127	46.64
220.6	51
221.074	47
221.547	48.77
222.021	54.83
222.494	83.11
222.967	56.56
223.441	69.15
223.914	51.07
224.387	63.7
224.86	57.53
225.334	57.25
225.807	67.47
226.28	56.37
226.753	61.07
227.226	72.24
227.699	63.09
228.172	72.54
228.645	66.37
229.118	65.62
229.591	68.96
230.064	60.47
230.537	59.58
231.01	64.83
231.482	65
231.955	58.55
232.428	64.8
232.901	66.67
233.373	66.59
233.846	62.98
234.319	58.17
234.791	61.36
235.264	61.11
235.736	59.64
236.209	64.38
236.681	57.69
237.154	54.2
237.626	61.1
238.099	55.53
238.571	60.57
239.044	57.3
239.516	62.57
239.988	62.67
240.46	60.61
240.933	62.25
241.405	58.99
241.877	59.32
242.349	64.65
242.821	60.65
243.293	60.7
243.765	53.66
244.237	54.94
244.71	56.95
245.181	59.14
245.653	57.66
246.125	51.84
246.597	59.13
247.069	53.75
247.541	56.73
248.013	52.11
248.485	52.64
248.956	53.55
249.428	50.58
249.9	50.28
250.371	48.98
250.843	54.9
251.315	53.38
251.786	50.14
252.258	54.86
252.729	52.97
253.201	53.02
253.672	49.77
254.144	49.82
254.615	50.85
255.086	50.71
255.558	52.4
256.029	48.77
256.5	51.97
256.972	51.41
257.443	50.67
257.914	51.07
258.385	49.06
258.856	49.14
259.327	52.1
259.799	50.01
260.27	50.95
260.741	53.75
261.212	52.19
261.683	50.48
262.154	54.17
262.624	53.4
263.095	51.12
263.566	50.75
264.037	52.11
264.508	50.84
264.979	51.36
265.449	51.18
265.92	51.25
266.391	51.8
266.861	51.23
267.332	48.63
267.803	50.54
268.273	51.08
268.744	51.95
269.214	50.2
269.685	52.43
270.155	48.83
270.626	50.74
271.096	53.01
271.566	50.41
272.037	54.67
272.507	51.95
272.977	52.82
273.448	49.16
273.918	49.96
274.388	53.22
274.858	52.99
275.328	52.16
275.798	49.02
276.268	51.91
276.738	52.82
277.208	53.66
277.678	50.45
278.148	48.26
278.618	52.45
279.088	48.99
279.558	48.9
280.028	53.28
280.498	48.98
280.968	53.42
281.437	51.33
281.907	50.05
282.377	51.9
282.847	48.39
283.316	49.1
283.786	49.88
284.255	49.46
284.725	49.04
285.194	48.93
285.664	49.58
286.133	55.12
286.603	48.02
287.072	50.08
287.542	50.7
288.011	47.58
288.48	52.36
288.95	49.97
289.419	48.22
289.888	50.26
290.357	50.31
290.827	49.86
291.296	49.01
291.765	51.51
292.234	47.18
292.703	49.27
293.172	49.75
293.641	48.88
294.11	49.16
294.579	50.43
295.048	47.62
295.517	45.61
295.986	47.99
296.455	48.75
296.923	46.34
297.392	45.45
297.861	44.97
298.33	45.77
298.798	47.59
299.267	46.63
299.736	48.39
300.204	44.09
300.673	45.28
301.141	43.27
301.61	48.54
302.079	46.98
302.547	44.41
303.015	46.59
303.484	46.98
303.952	46.89
304.421	44.64
304.889	44.54
305.357	44.52
305.825	44.36
306.294	45.17
306.762	44.41
307.23	44.08
307.698	42.37
308.166	41.44
308.634	43.53
309.103	47.11
309.571	44.65
310.039	42.58
310.507	43.92
310.975	42.08
311.442	44.56
311.91	44.3
312.378	45.44
312.846	39.93
313.314	42.71
313.782	44.69
314.249	41
314.717	41.27
315.185	43.29
315.652	38.99
316.12	40.92
316.588	41.09
317.055	42.18
317.523	39.55
317.99	41.7
318.458	42.38
318.925	41.77
319.393	39.78
319.86	41.47
320.328	40
320.795	39.31
321.262	41.48
321.73	39.19
322.197	38.44
322.664	39.89
323.131	40.37
323.598	41.01
324.066	38.95
324.533	38.92
325	38.61
325.467	41.66
325.934	41.28
326.401	45.06
326.868	43.41
327.335	40.18
327.802	42.26
328.269	43.8
328.735	41.79
329.202	40.53
329.669	43.13
330.136	44.97
330.603	44.52
331.069	45.05
331.536	47.42
332.003	44.06
332.469	45.91
332.936	45.96
333.402	45.51
333.869	46.27
334.336	48.94
334.802	44.73
335.268	45.63
335.735	46.26
336.201	45.86
336.668	48.27
337.134	48.27
337.6	46.17
338.067	45.43
338.533	42.6
338.999	44.48
339.465	48.13
339.931	46.2
340.398	45.15
340.864	44.89
341.33	45.81
341.796	43.96
342.262	48.19
342.728	46.45
343.194	45.88
343.66	45.1
344.126	44.47
344.592	45.01
345.057	45.05
345.523	44.99
345.989	43.53
346.455	45.19
346.921	44.54
347.386	43.94
347.852	42.55
348.318	44.39
348.783	43.47
349.249	44.63
349.714	44.39
350.18	43.52
350.645	43.83
351.111	43.13
351.576	42.16
352.042	44.72
352.507	41.99
352.973	41.17
353.438	42.83
353.903	43.83
354.369	42.48
354.834	41.3
355.299	41.49
355.764	41.22
356.229	39.13
356.695	42.36
357.16	42.13
357.625	38.71
358.09	41.78
358.555	41.73
359.02	44.51
359.485	40.26
359.95	38.95
360.415	41.8
360.879	44.59
361.344	39.5
361.809	40.2
362.274	41.61
362.739	39.86
363.203	41.99
363.668	37.87
364.133	38.6
364.597	38
365.062	39.92
365.527	39.6
365.991	36.99
366.456	41.29
366.92	36.96
367.385	38.25
367.849	39.56
368.314	37.4
368.778	40.05
369.242	41.59
369.707	37.54
370.171	40.42
370.635	36.74
371.1	41.01
371.564	40.86
372.028	39.83
372.492	39.74
372.956	36.23
373.42	37.91
373.884	38.54
374.348	37.73
374.812	36.92
375.276	37.77
375.74	34.95
376.204	35.52
376.668	38.05
377.132	36.1
377.596	37.17
378.06	37.13
378.524	34.22
378.987	37.71
379.451	37.46
379.915	34.26
380.378	36.65
380.842	36.51
381.306	36.89
381.769	34.45
382.233	36.24
382.696	37.39
383.16	36.19
383.623	36.48
384.087	34.51
384.55	37.46
385.014	35.04
385.477	35.44
385.94	36.21
386.404	35.1
386.867	37.97
387.33	36.46
387.793	35.89
388.256	34.37
388.72	32.04
389.183	35.82
389.646	36.52
390.109	35.49
390.572	34.12
391.035	35.5
391.498	35.35
391.961	33.32
392.424	33.11
392.887	36.03
393.35	34.12
393.812	35.84
394.275	34.82
394.738	33.63
395.201	37.53
395.664	33.15
396.126	32.95
396.589	33.52
397.052	33.24
397.514	32.11
397.977	33.82
398.439	34.4
398.902	33.98
399.364	34.3
399.827	33.65
400.289	33.66
400.752	34.18
401.214	31.7
401.676	31.3
402.139	32.28
402.601	34.42
403.063	32.55
403.525	32.41
403.988	31.56
404.45	33.24
404.912	31.5
405.374	34.81
405.836	31.71
406.298	32.49
406.76	32.65
407.222	31.95
407.684	32.14
408.146	32.15
408.608	30
409.07	31.67
409.532	32.22
409.994	29.61
410.456	31.4
410.917	32.6
411.379	30.51
411.841	30.82
412.303	32.68
412.764	32.19
413.226	30.41
413.687	30.19
414.149	30.11
414.611	31.48
415.072	31.17
415.534	30.52
415.995	31.39
416.457	32.71
416.918	31.08
417.379	31.05
417.841	32.6
418.302	31.82
418.763	31.66
419.225	31.17
419.686	30.19
420.147	29.76
420.608	31.11
421.069	30.83
421.53	31.68
421.991	31.28
422.453	30.54
422.914	34.06
423.375	30.53
423.836	33.99
424.297	33.3
424.757	34.2
425.218	32.03
425.679	31.16
426.14	29.87
426.601	30.63
427.062	32.17
427.522	31.2
427.983	31.99
428.444	30.78
428.904	30.99
429.365	32.17
429.826	31.24
430.286	27.38
430.747	30.73
431.207	30.78
431.668	31.08
432.128	27.47
432.589	29.73
433.049	28.72
433.509	26.36
433.97	28.61
434.43	30.49
434.89	30.31
435.351	29.46
435.811	29.27
436.271	28.78
436.731	29.87
437.191	29.44
437.651	29.74
438.112	29.68
438.572	33.26
439.032	28.11
439.492	32.21
439.952	29.05
440.412	27.41
440.871	29.55
441.331	32.11
441.791	28.73
442.251	30.17
442.711	26.93
443.171	27.93
443.63	30.95
444.09	32.71
444.55	27.51
445.009	31.51
445.469	30.34
445.929	26.92
446.388	31.79
446.848	28.77
447.307	26.79
447.767	30.44
448.226	26.57
448.686	27.11
449.145	28.72
449.604	30.02
450.064	30.68
450.523	29.39
450.982	28.99
451.442	30.84
451.901	30.62
452.36	29
452.819	30.22
453.278	30.08
453.737	32.07
454.197	28.43
454.656	30.55
455.115	31.87
455.574	29.7
456.033	27.31
456.492	31.87
456.95	29.06
457.409	30.12
457.868	32.61
458.327	34.54
458.786	28.47
459.245	28.29
459.703	28.48
460.162	30
460.621	30.5
461.079	30.64
461.538	33.22
461.997	33.44
462.455	30.45
462.914	31.26
463.372	31.04
463.831	31.54
464.289	32.87
464.748	30.81
465.206	30.85
465.664	35.02
466.123	34.44
466.581	27.75
467.039	30.72
467.497	30.68
467.956	28.77
468.414	31.77
468.872	30.09
469.33	31.73
469.788	30.73
470.246	29.51
470.704	29.52
471.162	33.04
471.62	32.29
472.078	34.18
472.536	32.07
472.994	28.04
473.452	31.7
473.91	31.66
474.368	33.85
474.826	29.89
475.283	30.81
475.741	29.44
476.199	32.43
476.656	32.65
477.114	32.75
477.572	35.3
478.029	30.18
478.487	29.19
478.944	31.4
479.402	28.25
479.859	33.08
480.317	33.1
480.774	32.37
481.232	32.81
481.689	32.78
482.146	35.28
482.604	33.28
483.061	32.88
483.518	35.42
483.975	29.1
484.433	29.88
484.89	29.69
485.347	34.18
485.804	34.85
486.261	34.4
486.718	31.71
487.175	30.54
487.632	32.73
488.089	35.64
488.546	31.22
489.003	34.58
489.46	32.85
489.917	35.02
490.373	32.6
490.83	31.82
491.287	32.98
491.744	28.62
492.2	33.46
492.657	31.98
493.114	32.26
493.57	32.14
494.027	34.61
494.484	33.49
494.94	29.15
495.397	32.76
495.853	34.38
496.31	34.38
496.766	32.08
497.222	37.96
497.679	32.62
498.135	34.15
498.591	30.84
499.048	33.25
499.504	34.27
499.96	33.11
500.416	33.66
500.872	34.44
501.329	31.2
501.785	33.56
502.241	32.21
502.697	33.67
503.153	32.88
503.609	33.64
504.065	34.42
504.521	32.05
504.977	34.11
505.432	34.27
505.888	35.03
506.344	35.82
506.8	33.47
507.256	34.52
507.711	34.46
508.167	33.5
508.623	32.6
509.078	33.96
509.534	37.2
509.99	35.85
510.445	35.72
510.901	36.13
511.356	35.97
511.812	35.13
512.267	32.8
512.722	35.45
513.178	33.92
513.633	34.92
514.089	33.01
514.544	35.07
514.999	34.26
515.454	33.76
515.91	37.39
516.365	36.06
516.82	34.45
517.275	33.03
517.73	34.46
518.185	33.59
518.64	34.3
519.095	31.24
519.55	34.4
520.005	37.37
520.46	33.63
520.915	34.64
521.37	33.9
521.825	35.49
522.28	33.75
522.734	32.79
523.189	35.65
523.644	36.67
524.099	33.08
524.553	33.61
525.008	32.22
525.462	34.01
525.917	33
526.372	33.73
526.826	32.79
527.281	35.38
527.735	33.92
528.19	32.88
528.644	33.9
529.098	35.4
529.553	33.58
530.007	33.8
530.461	33.84
530.916	34.94
531.37	34.47
531.824	34.75
532.278	31.28
532.732	33.48
533.186	35.16
533.641	34.61
534.095	34.1
534.549	34.84
535.003	34.94
535.457	36.46
535.911	35.37
536.365	35.07
536.818	32.88
537.272	35.34
537.726	31.53
538.18	34.91
538.634	35.6
539.087	33.4
539.541	32.3
539.995	33.18
540.449	36.19
540.902	34.21
541.356	33.86
541.809	33.29
542.263	29.92
542.716	32.39
543.17	33.69
543.623	33.43
544.077	33.24
544.53	36.06
544.984	34.07
545.437	36.23
545.89	31.99
546.344	33.24
546.797	34.98
547.25	33.56
547.703	34.83
548.157	32.16
548.61	33.04
549.063	31.94
549.516	33.6
549.969	34.81
550.422	34.42
550.875	33.57
551.328	31.42
551.781	32.32
552.234	33.6
552.687	34.2
553.14	32.59
553.592	35.76
554.045	33.48
554.498	35.31
554.951	33.84
555.404	34.16
555.856	33.07
556.309	34.79
556.762	33.19
557.214	36.93
557.667	36.58
558.119	33.93
558.572	35.88
559.024	37.45
559.477	35.17
559.929	35.16
560.382	33.22
560.834	34.43
561.286	33.14
561.739	36.45
562.191	33.4
562.643	33.38
563.095	37
563.548	36.71
564	34.49
564.452	34.14
564.904	35.6
565.356	34.83
565.808	37.1
566.26	36.89
566.712	35.05
567.164	34.61
567.616	34.34
568.068	35.63
568.52	34.34
568.972	35.86
569.424	36.48
569.876	36.7
570.327	36.72
570.779	36.77
571.231	34.15
571.682	34.66
572.134	35.07
572.586	36.2
573.037	36.08
573.489	36.04
573.941	35.94
574.392	34.43
574.844	35.17
575.295	35.31
575.746	33.99
576.198	34.1
576.649	35.74
577.101	38.55
577.552	34.44
578.003	35.24
578.454	36.77
578.906	35.34
579.357	34.75
579.808	35.89
580.259	36.02
580.71	36.58
581.161	35.38
581.612	35.72
582.064	35.41
582.515	35.14
582.965	35.83
583.416	36.96
583.867	35.79
584.318	34.1
584.769	35.26
585.22	36.85
585.671	34.67
586.122	34.44
586.572	35.27
587.023	35.84
587.474	34.6
587.924	36.09
588.375	36.93
588.826	37.86
589.276	33.73
589.727	37.13
590.177	35.78
590.628	36.99
591.078	36.31
591.529	34.59
591.979	37.76
592.429	36.6
592.88	37.06
593.33	37.44
593.78	37.78
594.231	34.84
594.681	36.48
595.131	36.63
595.581	36.63
596.031	36.27
596.481	36.08
596.932	35.25
597.382	35.31
597.832	34.6
598.282	37.38
598.732	35.65
599.182	36.2
599.632	35.62
600.081	37.57
600.531	36
600.981	36.49
601.431	35.48
601.881	36.74
602.33	36.2
602.78	35.25
603.23	36.44
603.679	37.82
604.129	36.12
604.579	35.07
605.028	38.2
605.478	35.44
605.927	37.95
606.377	35.77
606.826	35.92
607.276	37.14
607.725	36.35
608.175	37.42
608.624	35.42
609.073	35.73
609.522	36.85
609.972	35.77
610.421	37.21
610.87	36.79
611.319	35.79
611.768	37.5
612.218	36.86
612.667	38.44
613.116	36.59
613.565	36.28
614.014	36.55
614.463	35.51
614.912	37.01
615.361	35.44
615.81	35.98
616.258	36.2
616.707	37.96
617.156	37.92
617.605	36.84
618.054	36
618.502	37.17
618.951	36.8
619.4	38.08
619.848	36.59
620.297	37.92
620.745	36.42
621.194	37.05
621.642	38.16
622.091	37.58
622.539	37.56
622.988	36.28
623.436	37.17
623.885	35.09
624.333	36.93
624.781	38.32
625.23	37.46
625.678	35.33
626.126	36.32
626.574	37.28
627.022	38.49
627.471	37.18
627.919	38.27
628.367	36.68
628.815	38.38
629.263	37.93
629.711	38.39
630.159	37.48
630.607	37.59
631.055	38.27
631.503	39.19
631.95	37.51
632.398	36.89
632.846	36.49
633.294	37.64
633.742	36.44
634.189	37.28
634.637	37.92
635.085	37.27
635.532	37.61
635.98	37.93
636.427	38.13
636.875	38.28
637.323	36.83
637.77	37.78
638.217	37.51
638.665	37.13
639.112	37.49
639.56	37.72
640.007	38.28
640.454	37.88
640.902	39.08
641.349	38.11
641.796	37.62
642.243	37.91
642.69	37.52
643.138	38.07
643.585	37.86
644.032	37.48
644.479	37.66
644.926	36.32
645.373	38.92
645.82	37.46
646.267	37.9
646.714	38.77
647.161	37.99
647.607	37.87
648.054	38.49
648.501	39.13
648.948	37.27
649.395	37.81
649.841	37.15
650.288	38.31
650.735	38.44
651.181	37.5
651.628	38.1
652.075	37.29
652.521	39.14
652.968	36.25
653.414	37.59
653.861	39.23
654.307	38.31
654.753	38.35
655.2	38.46
655.646	38.9
656.092	37.17
656.539	38.12
656.985	37.45
657.431	38.26
657.877	37.65
658.324	37.92
658.77	38.43
659.216	38.13
659.662	39.68
660.108	38.14
660.554	38.63
661	37.24
661.446	37.06
661.892	38.93
662.338	38.34
662.784	37.87
663.23	38.59
663.675	38.15
664.121	39.47
664.567	38.63
665.013	37.81
665.458	38.64
665.904	38.98
666.35	37.24
666.795	38.07
667.241	38.11
667.687	38.72
668.132	38.52
668.578	37.48
669.023	39.75
669.469	38.86
669.914	39.29
670.359	38.31
670.805	37.95
671.25	38.35
671.695	40.18
672.141	37.94
672.586	39.3
673.031	38.63
673.476	39.34
673.922	38.01
674.367	38.44
674.812	38.42
675.257	38.35
675.702	38.75
676.147	39.31
676.592	39.15
677.037	39.38
677.482	38.77
677.927	39.51
678.372	38.67
678.817	39.73
679.261	39.52
679.706	39.47
680.151	39.29
680.596	39.13
681.04	38.23
681.485	38.43
681.93	38.98
682.374	38.35
682.819	38.19
683.264	38.71
683.708	38.99
684.153	39.74
684.597	39.08
685.042	39.27
685.486	38.5
685.93	39.28
686.375	39.85
686.819	38.48
687.263	38.69
687.708	39.12
688.152	38.43
688.596	39.01
689.04	39.82
689.485	39.68
689.929	38.61
690.373	38.65
690.817	39.08
691.261	39.01
691.705	39.3
692.149	38.61
692.593	39.8
693.037	39.37
693.481	38.93
693.925	39.09
694.369	39.72
694.812	39.42
695.256	39.54
695.7	39.08
696.144	39.74
696.587	39.13
697.031	39.55
697.475	38.72
697.918	40.61
698.362	39.02
698.806	39.84
699.249	39.23
699.693	39.07
700.136	39.36
700.58	39.36
701.023	40.08
701.466	40.71
701.91	40.11
702.353	39.43
702.796	38.97
703.24	40.16
703.683	38.56
704.126	39.35
704.569	38.98
705.013	38.37
705.456	38.89
705.899	39.52
706.342	40.24
706.785	40.47
707.228	40.29
707.671	38.86
708.114	39.09
708.557	39.36
709	39.87
709.443	39.28
709.886	39.31
710.328	39.53
710.771	40.06
711.214	39.89
711.657	39.77
712.099	39.39
712.542	40.24
712.985	39.25
713.427	40.42
713.87	39.11
714.313	40.79
714.755	39.93
715.198	39.82
715.64	38.82
716.083	39.42
716.525	40.1
716.967	39.57
717.41	39.84
717.852	39.93
718.295	40.13
718.737	40.86
719.179	39.91
719.621	40.26
720.063	39.63
720.506	40.61
720.948	40.26
721.39	40.14
721.832	39.9
722.274	41.04
722.716	39.39
723.158	40.32
723.6	39.87
724.042	39.76
724.484	40.88
724.926	39.62
725.368	39.46
725.81	40.06
726.251	40.39
726.693	40.09
727.135	39.97
727.577	40.55
728.018	41.61
728.46	39.52
728.902	39.64
729.343	40.22
729.785	40.56
730.226	39.64
730.668	38.74
731.109	39.91
731.551	39.76
731.992	39.78
732.434	40.71
732.875	40.27
733.316	41.13
733.758	39.28
734.199	40.35
734.64	39.22
735.081	40.94
735.523	39.34
735.964	41.87
736.405	40.82
736.846	39.88
737.287	39.01
737.728	40.42
738.169	40.2
738.61	39.7
739.051	39.87
739.492	39.95
739.933	41.43
740.374	39.93
740.815	40.7
741.256	39.24
741.696	40.82
742.137	40.47
742.578	40.05
743.019	38.45
743.459	40.72
743.9	39.91
744.341	41.56
744.781	40.24
745.222	40.15
745.662	41.61
746.103	40.07
746.543	39.88
746.984	39.86
747.424	40.02
747.865	42.24
748.305	40.9
748.745	39.55
749.186	39.39
749.626	40.33
750.066	40.71
750.506	40.41
750.947	40.33
751.387	40.17
751.827	40.94
752.267	40.35
752.707	39.87
753.147	40.42
753.587	40.46
754.027	40.96
754.467	42.74
754.907	40.11
755.347	40.42
755.787	41.17
756.227	40.25
756.667	40.41
757.107	40.85
757.546	40.29
757.986	40.79
758.426	41.32
758.865	40.06
759.305	42.6
759.745	41.21
760.184	41.07
760.624	40.43
761.063	41.06
761.503	41.34
761.943	40.47
762.382	41.25
762.821	42.36
763.261	40.39
763.7	41.43
764.14	42.29
764.579	40.86
765.018	41.67
765.457	40.99
765.897	42.11
766.336	40.59
766.775	42.56
767.214	41.04
767.653	40.26
768.092	42.4
768.531	41.63
768.97	41.7
769.409	40.54
769.848	41.46
770.287	41.89
770.726	41.69
771.165	40.94
771.604	41.22
772.043	40.75
772.482	41.64
772.92	39.87
773.359	41.79
773.798	40.87
774.237	41.67
774.675	41.47
775.114	39.89
775.553	42.27
775.991	41.74
776.43	42.35
776.868	42.18
777.307	42.3
777.745	42.82
778.184	41.37
778.622	41.98
779.06	42.82
779.499	41.48
779.937	41.36
780.375	41.57
780.814	41.7
781.252	41.84
781.69	42.19
782.128	42.2
782.566	40.91
783.004	41.42
783.443	42.43
783.881	42.58
784.319	42.53
784.757	41.78
785.195	42.08
785.633	42.14
786.071	41.91
786.508	42.17
786.946	42.18
787.384	42.19
787.822	42.2
788.26	41.97
788.697	41.73
789.135	42.14
789.573	42.36
790.011	43.17
790.448	41.59
790.886	41.45
791.323	41.83
791.761	43.08
792.198	42.51
792.636	41.9
793.073	42.66
793.511	42.31
793.948	43.1
794.386	42.78
794.823	43.26
795.26	43
795.698	42.18
796.135	42.35
796.572	42.25
797.009	43.53
797.446	43.45
797.884	42.88
798.321	42.95
798.758	42.99
799.195	42.89
799.632	42.63
800.069	42.12
800.506	43.28
800.943	42.16
801.38	43.41
801.817	42.78
802.254	41.45
802.69	43.02
803.127	43.03
803.564	41.84
804.001	41.97
804.438	43.79
804.874	42.69
805.311	42.21
805.748	43.76
806.184	43.17
806.621	42.83
807.057	42.33
807.494	43.75
807.93	42.27
808.367	43.45
808.803	43.01
809.24	42.85
809.676	42.69
810.112	43.72
810.549	42.7
810.985	44.06
811.421	43.32
811.857	44.12
812.294	43.53
812.73	43.6
813.166	43.16
813.602	43.55
814.038	44.05
814.474	43.37
814.91	43.18
815.346	44.11
815.782	42.45
816.218	43.17
816.654	43.56
817.09	43.96
817.526	43.28
817.962	43.93
818.398	43.41
818.833	44.12
819.269	42.86
819.705	44.29
820.141	43.27
820.576	44.51
821.012	42.97
821.447	43.93
821.883	44
822.319	44.53
822.754	44.89
823.19	43.99
823.625	43.58
824.061	43.29
824.496	43.97
824.931	44.59
825.367	43.43
825.802	44.39
826.237	43.96
826.673	44.19
827.108	44.34
827.543	43.92
827.978	44.1
828.413	45.55
828.849	44.27
829.284	44.96
829.719	44.84
830.154	44.04
830.589	44.26
831.024	43.81
831.459	44.18
831.894	44.2
832.329	43.56
832.763	44.51
833.198	44.38
833.633	44.42
834.068	42.98
834.503	45.26
834.937	44.18
835.372	45.06
835.807	45.06
836.241	44
836.676	44.75
837.111	44.15
837.545	44.72
837.98	43.74
838.414	43.7
838.849	44.82
839.283	44.47
839.717	45.49
840.152	44.74
840.586	43.73
841.021	45.52
841.455	45.08
841.889	45.68
842.323	44.33
842.758	45
843.192	44.83
843.626	44.4
844.06	46.33
844.494	44.65
844.928	44.88
845.362	44.99
845.796	44.13
846.23	45.73
846.664	45.41
847.098	45.01
847.532	45.27
847.966	44.82
848.4	45.4
848.834	45.3
849.267	44.95
849.701	45.05
850.135	45.11
850.569	45.55
851.002	45.27
851.436	46.23
851.87	45.91
852.303	45.75
852.737	45.13
853.17	45.55
853.604	44.12
854.037	44.91
854.471	45.83
854.904	45.2
855.337	46.41
855.771	45.83
856.204	44.69
856.637	44.74
857.071	44.92
857.504	45.32
857.937	45.21
858.37	46.51
858.804	45.69
859.237	46.23
859.67	45.43
860.103	45.75
860.536	45.94
860.969	46.08
861.402	45.89
861.835	45.67
862.268	45.66
862.701	45.4
863.134	45.86
863.566	45.11
863.999	46.87
864.432	46.05
864.865	45.62
865.298	46.38
865.73	46.2
866.163	45.93
866.596	45.14
867.028	46.71
867.461	46.36
867.893	46.48
868.326	45.56
868.758	46.01
869.191	46.35
869.623	47.33
870.056	46.83
870.488	46.73
870.92	46.13
871.353	46.33
871.785	46.49
872.217	45.83
872.65	46.69
873.082	46.68
873.514	46.49
873.946	46.76
874.378	46.99
874.81	45.96
875.243	46.66
875.675	45.95
876.107	46.51
876.539	47.1
876.971	46.52
877.403	47.61
877.834	47.28
878.266	46.01
878.698	46.35
879.13	46.94
879.562	47.09
879.994	47
880.425	47.34
880.857	46.18
881.289	47.03
881.72	47.75
882.152	47.61
882.584	46.35
883.015	46.53
883.447	47.36
883.878	47.36
884.31	46.77
884.741	47.53
885.173	47.25
885.604	47.21
886.035	46.53
886.467	46.93
886.898	47.41
887.329	48.01
887.76	46.86
888.192	46.85
888.623	47.81
889.054	48
889.485	47.14
889.916	47.52
890.347	47.82
890.778	46.65
891.209	47.41
891.64	47.14
892.071	46.9
892.502	46.81
892.933	47.49
893.364	47.38
893.795	47.99
894.226	46.91
894.657	48.15
895.087	47.98
895.518	48.22
895.949	47.29
896.38	47.94
896.81	47.75
897.241	48.18
897.671	47.89
898.102	47.64
898.533	47.67
898.963	48.7
899.394	47.93
899.824	47.95
900.254	47.41
900.685	47.8
901.115	48.27
901.546	48.84
901.976	48.14
902.406	47.78
902.836	47.79
903.267	47.65
903.697	47.87
904.127	48.27
904.557	48.11
904.987	48.13
905.417	47.84
905.847	48.33
906.277	48.67
906.707	48.8
907.137	48.58
907.567	48.37
907.997	49.15
908.427	48.8
908.857	48.65
909.287	48.51
909.717	48.89
910.146	48.21
910.576	47.87
911.006	49.12
911.436	48.35
911.865	48.05
912.295	49.06
912.724	48.41
913.154	48.41
913.584	49.88
914.013	48.48
914.443	49.21
914.872	49.01
915.302	48.3
915.731	48.44
916.16	49.13
916.59	48.66
917.019	49.03
917.448	48.42
917.878	49.64
918.307	48.34
918.736	48.9
919.165	48.53
919.594	48.82
920.023	48.91
920.452	49.69
920.882	48.5
921.311	48.62
921.74	49.18
922.169	49.22
922.597	48.75
923.026	49.11
923.455	49.48
923.884	48.73
924.313	49.43
924.742	48.88
925.171	47.99
925.599	49.66
926.028	49.55
926.457	49.36
926.885	49.25
927.314	48.86
927.743	49.27
928.171	50.16
928.6	49.3
929.028	49.32
929.457	49.56
929.885	49.2
930.314	48.72
930.742	49.94
931.17	49.8
931.599	50.13
932.027	49.65
932.455	48.65
932.884	49.53
933.312	49.2
933.74	49.67
934.168	48.97
934.596	49.19
935.025	49.75
935.453	50.63
935.881	49.77
936.309	49.13
936.737	49.57
937.165	49.23
937.593	49.58
938.021	49.36
938.449	48.95
938.876	50.07
939.304	50.15
939.732	49.76
940.16	49.69
940.588	48.52
941.015	49.15
941.443	49.72
941.871	50.03
942.298	49.8
942.726	49.62
943.154	49.2
943.581	51.01
944.009	50.58
944.436	50.3
944.864	50.56
945.291	51.02
945.718	49.33
946.146	50.75
946.573	50.58
947.001	50.37
947.428	51.22
947.855	51.36
948.282	50.83
948.71	50.92
949.137	50.69
949.564	50.1
949.991	49.89
950.418	50.74
950.845	50.21
951.272	50.59
951.699	51.89
952.126	51.06
952.553	50.92
952.98	50.56
953.407	50.78
953.834	51.31
954.261	50.29
954.688	50.9
955.114	50.6
955.541	50.58
955.968	51.45
956.395	51.43
956.821	50.54
957.248	51.39
957.674	51.08
958.101	50.3
958.528	50.5
958.954	50.8
959.381	51.42
959.807	51.71
960.234	50.93
960.66	50.8
961.086	50.94
961.513	51.16
961.939	51.55
962.365	50.93
962.792	51.76
963.218	51.49
963.644	51.19
964.07	50.98
964.496	51.21
964.923	51.69
965.349	50.91
965.775	51.58
966.201	51.96
966.627	51.28
967.053	50.75
967.479	50.9
967.905	50.9
968.331	50.68
968.756	51.06
969.182	50.75
969.608	50.68
970.034	50.7
970.46	50.7
970.885	51.25
971.311	51.9
971.737	51.29
972.162	51.89
972.588	51.72
973.014	51.97
973.439	51.96
973.865	51.3
974.29	51.23
974.716	51.87
975.141	51.46
975.567	51.27
975.992	51.79
976.417	52.2
976.843	52.09
977.268	51.91
977.693	52.11
978.119	51.72
978.544	51.45
978.969	51.73
979.394	52.17
979.819	51.59
980.244	52.38
980.669	51.64
981.095	51.24
981.52	51.81
981.945	51.78
982.369	52.26
982.794	51.77
983.219	52.28
983.644	51.84
984.069	52.09
984.494	52.31
984.919	52.14
985.343	52.29
985.768	52.7
986.193	52.31
986.618	51.66
987.042	52.25
987.467	52.03
987.891	52.73
988.316	52.38
988.741	52.51
989.165	52.53
989.59	52.06
990.014	52.56
990.438	52.48
990.863	52.46
991.287	52.33
991.712	52.85
992.136	51.85
992.56	52.2
992.984	52.31
993.409	52.61
993.833	52.18
994.257	52.58
994.681	52.43
995.105	52.38
995.529	52.49
995.953	52.92
996.377	53.43
996.801	53.2
997.225	53.17
997.649	52.34
998.073	53.35
998.497	52.9
998.921	52.65
999.345	52.95
999.769	53.32
1000.192	52.8
1000.616	52.52
1001.04	52.54
1001.464	52.82
1001.887	53.07
1002.311	53.26
1002.734	53.47
1003.158	53.44
1003.582	53.37
1004.005	53.92
1004.429	53.49
1004.852	53.62
1005.275	52.94
1005.699	53.22
1006.122	53.29
1006.546	53.4
1006.969	53.96
1007.392	53.45
1007.815	53.42
1008.239	53.21
1008.662	52.9
1009.085	53.44
1009.508	53.08
1009.931	53.73
1010.354	53.79
1010.778	53.55
1011.201	53.7
1011.624	54.04
1012.047	53.58
1012.469	53.78
1012.892	53.77
1013.315	53.11
1013.738	53.68
1014.161	53.63
1014.584	53.9
1015.007	53.8
1015.429	53.97
1015.852	53.54
1016.275	53.5
1016.697	54.27
1017.12	54.33
1017.543	53.99
1017.965	53.93
1018.388	53.77
1018.81	54.35
1019.233	53.93
1019.655	53.91
1020.078	54.24
1020.5	53.14
1020.922	53.96
1021.345	54.87
1021.767	54.6
1022.189	53.78
1022.612	53.87
1023.034	54.09
1023.456	53.88
1023.878	54.45
1024.301	54.06
1024.723	53.93
1025.145	55.25
1025.567	54.14
1025.989	54.34
1026.411	54.58
1026.833	54.89
1027.255	55.42
1027.677	54.1
1028.099	54.08
1028.52	53.83
1028.942	54.57
1029.364	54.24
1029.786	54.29
1030.208	54.43
1030.629	53.89
1031.051	54.03
1031.473	54.08
1031.894	54.76
1032.316	54.42
1032.738	53.79
1033.159	54.16
1033.581	53.87
1034.002	54.06
1034.424	54.24
1034.845	54
1035.267	55.05
1035.688	54.57
1036.109	55.54
1036.531	54.08
1036.952	54.5
1037.373	54.5
1037.794	54.18
1038.216	54.88
1038.637	54.19
1039.058	56.1
1039.479	54.75
1039.9	54.55
1040.321	54.99
1040.742	54.51
1041.163	55.08
1041.584	54.63
1042.005	54.6
1042.426	55.03
1042.847	54.68
1043.268	54.21
1043.689	55.03
1044.11	55.2
1044.53	53.98
1044.951	55.92
1045.372	54.72
1045.793	56.09
1046.213	54.6
1046.634	55.13
1047.055	54.4
1047.475	54.9
1047.896	55.16
1048.316	55.84
1048.737	55.48
1049.157	55.22
1049.578	54.68
1049.998	55.19
1050.419	54.36
1050.839	55.29
1051.259	55.83
1051.68	54.8
1052.1	55.58
1052.52	55.33
1052.94	55.15
1053.361	55.51
1053.781	55.45
1054.201	55.04
1054.621	55.4
1055.041	56.86
1055.461	55.06
1055.881	56.2
1056.301	55.23
1056.721	54.59
1057.141	55.23
1057.561	54.64
1057.981	55.11
1058.401	56.13
1058.82	55.47
1059.24	55.5
1059.66	56.14
1060.08	56.39
1060.499	56.62
1060.919	55.27
1061.339	54.78
1061.758	55.06
1062.178	55.35
1062.598	55.39
1063.017	55.54
1063.437	55.77
1063.856	55.42
1064.276	54.18
1064.695	54.15
1065.114	56.45
1065.534	54.42
1065.953	56.42
1066.372	57.24
1066.792	56.88
1067.211	56.43
1067.63	54.73
1068.049	56.03
1068.469	56.1
1068.888	55.98
1069.307	55.6
1069.726	56.2
1070.145	57.02
1070.564	55.31
1070.983	55.18
1071.402	58.54
1071.821	55.81
1072.24	57.45
1072.659	55.61
1073.078	56.21
1073.496	55.19
1073.915	55.45
1074.334	55.23
1074.753	56.44
1075.171	55.78
1075.59	55.68
1076.009	56.34
1076.427	55.15
1076.846	56.22
1077.265	55.42
1077.683	55.69
1078.102	56.32
1078.52	55.57
1078.939	56.01
1079.357	55.76
1079.776	55.74
1080.194	56.02
1080.612	57.19
1081.031	56.26
1081.449	55.14
1081.867	55.17
1082.285	54.97
1082.704	57.31
1083.122	56.39
1083.54	55.86
1083.958	55.62
1084.376	56.22
1084.794	56.06
1085.212	53.91
1085.63	56.24
1086.048	57.93
1086.466	56.57
1086.884	55.84
1087.302	56.85
1087.72	55.99
1088.138	57.37
1088.555	54.82
1088.973	55.34
1089.391	56.17
1089.809	57.68
1090.226	54.97
1090.644	56.83
1091.062	55.76
1091.479	55.98
1091.897	56.51
1092.314	54.66
1092.732	55.3
1093.15	56.85
1093.567	57.52
1093.984	55.47
1094.402	56
1094.819	55.53
1095.237	55.21
1095.654	55.78
1096.071	55.24
1096.488	54.6
1096.906	53.53
1097.323	55.8
1097.74	56.19
1098.157	57.52
1098.574	55.06
1098.991	54.37
1099.409	53.78
1099.826	57.64
1100.243	56.78
1100.66	57.46
1101.077	54.86
1101.494	55.5
1101.91	54
1102.327	53.52
1102.744	55.54
1103.161	54.58
1103.578	54.12
1103.994	56.87
1104.411	54.62
1104.828	56.11
1105.245	54.6
1105.661	50.94
1106.078	55.57
1106.494	55.19
1106.911	55.9
1107.328	54.74
1107.744	54.54
1108.161	55.15
1108.577	56.95
1108.993	50.79
1109.41	55.59
1109.826	56.25
1110.242	49.78
1110.659	53.14
1111.075	55.87
1111.491	54.44
1111.908	53.08
1112.324	54.67
1112.74	44.08
1113.156	56.22
1113.572	52.25
1113.988	54.61
1114.404	59.53
1114.82	55
1115.236	53.57
1115.652	54.56
1116.068	50.13
1116.484	55.43
1116.9	52.46
1117.316	58.2
1117.732	-66.67
1118.147	29.63
1118.563	12.12
1118.979	-81.48
