Data from JCR0031_Black1_Reflection_00003.txt Node
Date: Fri Jul 31 14:29:41 ACST 2020
User: Stacey Dix
Spectrometer: MAYP113282
Scans to average: 1
Trigger mode: 0
Integration Time (sec): 1.000000E-1
Electric dark correction enabled: true
Boxcar width: 0
XAxis mode: Wavelengths
Number of Pixels in Spectrum: 2068
>>>>>Begin Spectral Data<<<<<
198.791	0
199.266	-47.22
199.74	216.67
200.215	283.33
200.69	63.84
201.164	31.76
201.639	13.11
202.114	7.11
202.588	33.94
203.063	52.62
203.537	22.15
204.012	37.11
204.486	26.91
204.961	29.5
205.435	19.49
205.909	30.91
206.384	22.27
206.858	14.25
207.332	5.49
207.807	32.63
208.281	30.37
208.755	31.45
209.229	25.06
209.703	-0.15
210.177	33.71
210.651	30.03
211.126	35.43
211.6	28.96
212.074	15.02
212.548	28.55
213.021	29.2
213.495	15.48
213.969	36.26
214.443	8.94
214.917	22.13
215.391	20.25
215.864	8.67
216.338	15.85
216.812	28.35
217.286	22.31
217.759	10.4
218.233	17.75
218.706	22.93
219.18	15.35
219.654	16.73
220.127	24.11
220.6	14.39
221.074	8.37
221.547	13.37
222.021	12.95
222.494	8.11
222.967	11.59
223.441	7.78
223.914	14.2
224.387	14.42
224.86	19.04
225.334	3.83
225.807	11.31
226.28	9.24
226.753	12.04
227.226	7.45
227.699	9.69
228.172	9.9
228.645	10.67
229.118	8.4
229.591	9.49
230.064	9.16
230.537	8.78
231.01	9.37
231.482	7.86
231.955	11.46
232.428	9.82
232.901	6.85
233.373	6.11
233.846	5.84
234.319	7.46
234.791	6.74
235.264	6.66
235.736	8.94
236.209	8.94
236.681	5.64
237.154	7.53
237.626	7.03
238.099	8.09
238.571	6.83
239.044	6.83
239.516	7.66
239.988	7.26
240.46	7.71
240.933	6.41
241.405	6.9
241.877	8.2
242.349	7.11
242.821	6.98
243.293	6.5
243.765	6.17
244.237	6.62
244.71	6.44
245.181	6.98
245.653	6.87
246.125	7.35
246.597	7.34
247.069	6.93
247.541	6.65
248.013	6.61
248.485	6.21
248.956	7.63
249.428	6.13
249.9	6.43
250.371	5.91
250.843	6.67
251.315	6.05
251.786	6.79
252.258	5.69
252.729	6.82
253.201	5.99
253.672	5.54
254.144	6.06
254.615	6.07
255.086	5.19
255.558	6.49
256.029	5.31
256.5	5.85
256.972	4.82
257.443	5.82
257.914	5.15
258.385	5.8
258.856	5.43
259.327	5.81
259.799	5.39
260.27	5.56
260.741	5.1
261.212	5.81
261.683	5.34
262.154	5.64
262.624	5.72
263.095	4.78
263.566	5.45
264.037	5.54
264.508	5.19
264.979	5.17
265.449	5.75
265.92	5.31
266.391	5.41
266.861	5.94
267.332	5.2
267.803	5.81
268.273	5.28
268.744	5.36
269.214	5.27
269.685	5.69
270.155	5.33
270.626	5.11
271.096	4.54
271.566	5.28
272.037	5.21
272.507	4.88
272.977	6.48
273.448	5.15
273.918	4.36
274.388	4.88
274.858	5.19
275.328	5.63
275.798	4.78
276.268	5.61
276.738	5.97
277.208	6.02
277.678	5.25
278.148	5.58
278.618	4.58
279.088	5.42
279.558	4.64
280.028	5.71
280.498	5.39
280.968	5.27
281.437	5.62
281.907	4.77
282.377	4.57
282.847	4.86
283.316	4.55
283.786	5.28
284.255	4.65
284.725	4.7
285.194	4.68
285.664	5.9
286.133	4.43
286.603	5.12
287.072	5.18
287.542	5.16
288.011	4.46
288.48	4.76
288.95	5.06
289.419	4.85
289.888	5.29
290.357	5.06
290.827	5.03
291.296	4.42
291.765	4.62
292.234	5.45
292.703	4.95
293.172	5.24
293.641	5.03
294.11	5.73
294.579	4.68
295.048	4.98
295.517	4.71
295.986	4.81
296.455	5.64
296.923	5.14
297.392	4.83
297.861	4.99
298.33	5.07
298.798	5.09
299.267	5.33
299.736	4.94
300.204	5.25
300.673	4.36
301.141	4.71
301.61	5.82
302.079	4.84
302.547	4.33
303.015	4.28
303.484	4.51
303.952	5.29
304.421	5.21
304.889	5.61
305.357	4.52
305.825	5.68
306.294	5.44
306.762	5.31
307.23	5.02
307.698	4.33
308.166	4.7
308.634	5.35
309.103	4.38
309.571	5.09
310.039	5.29
310.507	5.14
310.975	5.59
311.442	5.24
311.91	5.61
312.378	5.35
312.846	4.96
313.314	5.12
313.782	5.5
314.249	5.7
314.717	5.28
315.185	5.57
315.652	5.36
316.12	5.51
316.588	5.37
317.055	5.23
317.523	5.21
317.99	5.06
318.458	5.03
318.925	5.17
319.393	5.5
319.86	5.26
320.328	4.9
320.795	5.72
321.262	5.73
321.73	6.39
322.197	6.17
322.664	6.11
323.131	5.94
323.598	6.4
324.066	6.4
324.533	6.58
325	6.66
325.467	6.36
325.934	6.61
326.401	7.18
326.868	6.97
327.335	7.84
327.802	7.02
328.269	6.31
328.735	7.45
329.202	7.5
329.669	8.05
330.136	7.22
330.603	7.96
331.069	7.82
331.536	7.64
332.003	7.19
332.469	7.59
332.936	7.86
333.402	7.78
333.869	7.24
334.336	7.53
334.802	8.05
335.268	8.18
335.735	8.05
336.201	8.21
336.668	8.85
337.134	8.08
337.6	7.92
338.067	7.17
338.533	7.86
338.999	6.57
339.465	7.11
339.931	7.44
340.398	8.31
340.864	6.82
341.33	7.41
341.796	8.37
342.262	7.32
342.728	7.85
343.194	9.19
343.66	7.84
344.126	7.38
344.592	7.57
345.057	7.43
345.523	7.53
345.989	8.29
346.455	7.68
346.921	7.05
347.386	8.16
347.852	8.05
348.318	9.34
348.783	8.92
349.249	7.97
349.714	7.61
350.18	8.8
350.645	8.37
351.111	8.18
351.576	9.04
352.042	9.04
352.507	8.82
352.973	8.02
353.438	8.05
353.903	8.64
354.369	8.75
354.834	8.88
355.299	8.61
355.764	9.48
356.229	9.24
356.695	8.68
357.16	8.63
357.625	9.27
358.09	9.86
358.555	8.92
359.02	9
359.485	9.6
359.95	9.79
360.415	9.82
360.879	9.08
361.344	9.77
361.809	9.88
362.274	9.58
362.739	10.51
363.203	10.13
363.668	9.66
364.133	10.09
364.597	9.92
365.062	11.33
365.527	11.7
365.991	11.22
366.456	10.9
366.92	10.36
367.385	11.81
367.849	11.32
368.314	13.16
368.778	11.66
369.242	12.75
369.707	11.22
370.171	11.18
370.635	12.33
371.1	12.69
371.564	11.59
372.028	10.93
372.492	12.37
372.956	13.32
373.42	13.35
373.884	12.69
374.348	12.07
374.812	13.9
375.276	13.93
375.74	12.72
376.204	13.29
376.668	12.04
377.132	14.59
377.596	13.92
378.06	13.43
378.524	13.97
378.987	14.99
379.451	13.9
379.915	13.68
380.378	14.58
380.842	14.6
381.306	14.46
381.769	14.93
382.233	12.62
382.696	14.69
383.16	14.9
383.623	14.66
384.087	13.95
384.55	14.21
385.014	15.19
385.477	14.4
385.94	14.62
386.404	14.75
386.867	14.81
387.33	14.3
387.793	15.58
388.256	15.54
388.72	14.91
389.183	14.91
389.646	14.61
390.109	14.41
390.572	14.78
391.035	14.35
391.498	14.83
391.961	15.01
392.424	14.95
392.887	14.77
393.35	14.32
393.812	15.07
394.275	15.26
394.738	13.97
395.201	14.83
395.664	15.91
396.126	15.02
396.589	14.96
397.052	15.88
397.514	15.83
397.977	14.19
398.439	15.36
398.902	15.03
399.364	15.33
399.827	16.31
400.289	15.68
400.752	15.08
401.214	16.64
401.676	15.91
402.139	15.36
402.601	15.66
403.063	16.16
403.525	16.65
403.988	15.43
404.45	15.39
404.912	16.4
405.374	16.28
405.836	15.53
406.298	15.38
406.76	14.85
407.222	14.45
407.684	14.22
408.146	16.34
408.608	15.34
409.07	15.71
409.532	15.4
409.994	16.05
410.456	14.56
410.917	16.12
411.379	16.57
411.841	15.88
412.303	16.48
412.764	15.77
413.226	15.53
413.687	15.82
414.149	17.23
414.611	15.06
415.072	16.14
415.534	15.79
415.995	15.85
416.457	16.01
416.918	16.95
417.379	16.85
417.841	16.51
418.302	16.22
418.763	16.58
419.225	17.34
419.686	18.09
420.147	16.94
420.608	16.39
421.069	16.5
421.53	16.85
421.991	16.75
422.453	17.05
422.914	18.49
423.375	16.45
423.836	17.68
424.297	18.35
424.757	17.47
425.218	17.74
425.679	16.25
426.14	18.3
426.601	17.92
427.062	19.29
427.522	16.29
427.983	17.78
428.444	17.64
428.904	18.01
429.365	17.95
429.826	19.95
430.286	18.28
430.747	18.97
431.207	18.5
431.668	19.17
432.128	19.76
432.589	18.43
433.049	19.88
433.509	20.41
433.97	20.67
434.43	18.46
434.89	19.68
435.351	18.95
435.811	19.67
436.271	18.45
436.731	21.2
437.191	19.67
437.651	20.46
438.112	21.56
438.572	20.38
439.032	19.73
439.492	20.31
439.952	20.96
440.412	19.07
440.871	22.94
441.331	20.8
441.791	21.9
442.251	22.9
442.711	21.93
443.171	20.77
443.63	20.1
444.09	21.1
444.55	20.15
445.009	19.61
445.469	19.89
445.929	20.52
446.388	22.21
446.848	20.68
447.307	22.85
447.767	20.47
448.226	21.5
448.686	20.87
449.145	22.54
449.604	21.25
450.064	21.77
450.523	21.77
450.982	21.95
451.442	21.35
451.901	22.48
452.36	22.07
452.819	22.34
453.278	20.45
453.737	20.37
454.197	23.11
454.656	22.54
455.115	23.05
455.574	21.75
456.033	20.41
456.492	23.21
456.95	21.43
457.409	21.08
457.868	22.96
458.327	24.23
458.786	23.46
459.245	22.53
459.703	22.28
460.162	22.46
460.621	23.36
461.079	22.59
461.538	21.14
461.997	23.83
462.455	23
462.914	21.09
463.372	23.55
463.831	25
464.289	23.78
464.748	23.74
465.206	22.98
465.664	22.99
466.123	23.35
466.581	23.19
467.039	24.06
467.497	21.06
467.956	23.43
468.414	21.89
468.872	23.04
469.33	23.25
469.788	22.34
470.246	24.3
470.704	23.19
471.162	24.34
471.62	23.62
472.078	22.18
472.536	24.59
472.994	23.94
473.452	22.73
473.91	22.68
474.368	22.38
474.826	22.19
475.283	22.52
475.741	22.49
476.199	21.8
476.656	25.69
477.114	20.79
477.572	23.8
478.029	22.73
478.487	26.08
478.944	22.4
479.402	25.35
479.859	23.25
480.317	23.64
480.774	21.32
481.232	23.28
481.689	22.43
482.146	24.24
482.604	23.06
483.061	22.23
483.518	24.19
483.975	23.93
484.433	22.97
484.89	21.73
485.347	21.81
485.804	25.01
486.261	22.62
486.718	23.59
487.175	25.27
487.632	22.3
488.089	23.54
488.546	21.59
489.003	23.1
489.46	23.24
489.917	22.32
490.373	22.43
490.83	23.56
491.287	24.14
491.744	23.14
492.2	25.04
492.657	24.32
493.114	23.02
493.57	25.15
494.027	23.73
494.484	22.8
494.94	22.55
495.397	23.35
495.853	24.11
496.31	23.86
496.766	24.15
497.222	23.41
497.679	24.78
498.135	23.9
498.591	23.37
499.048	23.46
499.504	22.89
499.96	26.82
500.416	23.24
500.872	24.37
501.329	23.21
501.785	25.11
502.241	24.42
502.697	23.93
503.153	23.82
503.609	22.59
504.065	23.37
504.521	23.28
504.977	22.96
505.432	22.82
505.888	23.79
506.344	25.41
506.8	23.56
507.256	23.05
507.711	24.01
508.167	21.25
508.623	23.8
509.078	22.24
509.534	23.94
509.99	23.29
510.445	23.46
510.901	24.74
511.356	25.46
511.812	24.3
512.267	22.54
512.722	24.18
513.178	23.97
513.633	23.26
514.089	24.83
514.544	23.77
514.999	24.39
515.454	22.52
515.91	22.88
516.365	24.9
516.82	24.44
517.275	23.11
517.73	23.94
518.185	23.42
518.64	25.03
519.095	24
519.55	22.87
520.005	23.73
520.46	23.35
520.915	25.25
521.37	24.67
521.825	24.03
522.28	24.53
522.734	25.19
523.189	23.51
523.644	23.59
524.099	25.04
524.553	24.52
525.008	23.73
525.462	24.64
525.917	23.74
526.372	25.12
526.826	23.06
527.281	26.27
527.735	24.68
528.19	24.81
528.644	24.3
529.098	24.4
529.553	24.79
530.007	24.69
530.461	25.56
530.916	24.75
531.37	23.33
531.824	24.75
532.278	26.21
532.732	23.7
533.186	23.65
533.641	26.21
534.095	26.42
534.549	25.19
535.003	25.02
535.457	25.09
535.911	24.5
536.365	25.07
536.818	26.12
537.272	24.41
537.726	25.92
538.18	25.44
538.634	24.13
539.087	27.48
539.541	26.26
539.995	25.26
540.449	26.21
540.902	26.75
541.356	26.54
541.809	24.8
542.263	26.19
542.716	26.61
543.17	24.57
543.623	25.03
544.077	27.19
544.53	25.22
544.984	25.93
545.437	24.66
545.89	26.74
546.344	25.07
546.797	26.87
547.25	26.44
547.703	26.43
548.157	24.8
548.61	24.38
549.063	26.58
549.516	25.92
549.969	27.4
550.422	26.92
550.875	26.77
551.328	26.65
551.781	26.32
552.234	26.84
552.687	25.8
553.14	28.66
553.592	27.18
554.045	27.91
554.498	26.58
554.951	25.9
555.404	25.67
555.856	27.73
556.309	27.63
556.762	27.4
557.214	26.42
557.667	25
558.119	25.78
558.572	27.24
559.024	24.44
559.477	28.25
559.929	27.03
560.382	26.17
560.834	26.4
561.286	27.32
561.739	27.85
562.191	27.43
562.643	28.01
563.095	26.72
563.548	28.06
564	27.92
564.452	26.47
564.904	25.84
565.356	28.21
565.808	27.02
566.26	27.1
566.712	27.45
567.164	28.3
567.616	28.69
568.068	26.53
568.52	26.69
568.972	25.26
569.424	27.09
569.876	29.46
570.327	27.47
570.779	27.01
571.231	28.31
571.682	27.11
572.134	28.11
572.586	27.38
573.037	26.3
573.489	28.08
573.941	27.96
574.392	27.28
574.844	27.86
575.295	27.96
575.746	26.81
576.198	28.15
576.649	27.6
577.101	28.07
577.552	28.68
578.003	28.01
578.454	27.82
578.906	28.01
579.357	27.61
579.808	29.33
580.259	27.57
580.71	28.29
581.161	26.78
581.612	27.26
582.064	28.1
582.515	28.57
582.965	28.12
583.416	27.39
583.867	27.6
584.318	27.32
584.769	28.16
585.22	28.68
585.671	29.55
586.122	28.11
586.572	28.21
587.023	28.27
587.474	28.08
587.924	28.52
588.375	28.9
588.826	29.24
589.276	28.69
589.727	27.63
590.177	28.44
590.628	27.98
591.078	27.39
591.529	30.31
591.979	28.17
592.429	28.07
592.88	28.39
593.33	27.27
593.78	27.86
594.231	29.17
594.681	29.15
595.131	28.09
595.581	27.87
596.031	28.6
596.481	28.85
596.932	29.53
597.382	28
597.832	27.48
598.282	27.97
598.732	27.42
599.182	28.75
599.632	27.45
600.081	29.16
600.531	28.51
600.981	28.5
601.431	28.62
601.881	28.59
602.33	29.41
602.78	28.07
603.23	27.97
603.679	29.69
604.129	27.89
604.579	28.89
605.028	27.65
605.478	27.61
605.927	28.07
606.377	28.81
606.826	29.05
607.276	27.82
607.725	29.49
608.175	29.38
608.624	28.99
609.073	28.75
609.522	28.71
609.972	28.59
610.421	27.96
610.87	28.9
611.319	29.31
611.768	29.01
612.218	29.53
612.667	29.52
613.116	29.28
613.565	28.97
614.014	29.11
614.463	29.95
614.912	27.82
615.361	29.04
615.81	28.45
616.258	28.7
616.707	29.32
617.156	28.56
617.605	28.68
618.054	27.99
618.502	28.53
618.951	29
619.4	28.9
619.848	28.9
620.297	28.28
620.745	29.03
621.194	29.11
621.642	29.45
622.091	28.28
622.539	29.52
622.988	29.83
623.436	28.43
623.885	29.4
624.333	28.51
624.781	29.34
625.23	29.74
625.678	29.86
626.126	29.37
626.574	28.28
627.022	28.75
627.471	29.23
627.919	30.72
628.367	28.9
628.815	28.87
629.263	29.77
629.711	29.36
630.159	28.77
630.607	28.58
631.055	29.16
631.503	28.18
631.95	29.21
632.398	29.14
632.846	28.87
633.294	29.33
633.742	29.22
634.189	29.82
634.637	29.38
635.085	29.55
635.532	28.64
635.98	28.93
636.427	28.97
636.875	30.07
637.323	29.43
637.77	29.31
638.217	29.85
638.665	28.65
639.112	30.04
639.56	29.05
640.007	29.69
640.454	29.43
640.902	28.9
641.349	30.16
641.796	30.18
642.243	29.32
642.69	29.63
643.138	29.9
643.585	30.32
644.032	29.79
644.479	28.91
644.926	29.57
645.373	29.95
645.82	29.34
646.267	29.42
646.714	29.76
647.161	29.03
647.607	29.98
648.054	29.87
648.501	29.74
648.948	29.8
649.395	29.86
649.841	30.17
650.288	29.45
650.735	29.27
651.181	30.43
651.628	28.75
652.075	29.66
652.521	30.29
652.968	30.18
653.414	29.93
653.861	29.55
654.307	29.18
654.753	29.59
655.2	30.3
655.646	29.58
656.092	29.97
656.539	29.73
656.985	30.67
657.431	30.63
657.877	29.42
658.324	28.62
658.77	30.29
659.216	30.18
659.662	29.46
660.108	29.24
660.554	29.43
661	29.96
661.446	29.93
661.892	29.91
662.338	30.07
662.784	30.27
663.23	30.01
663.675	29.61
664.121	29.8
664.567	30.19
665.013	30.48
665.458	30.52
665.904	29.91
666.35	30.32
666.795	29.84
667.241	29.87
667.687	30.11
668.132	30.27
668.578	30.29
669.023	29.31
669.469	29.94
669.914	30.42
670.359	29.43
670.805	30.43
671.25	29.9
671.695	29.89
672.141	30.22
672.586	30.07
673.031	30.1
673.476	30.14
673.922	30.22
674.367	29.71
674.812	29.68
675.257	29.67
675.702	30.06
676.147	29.87
676.592	30.38
677.037	29.64
677.482	29.96
677.927	30.33
678.372	29.97
678.817	30.52
679.261	30.1
679.706	30.48
680.151	29.69
680.596	30.75
681.04	29.73
681.485	30.76
681.93	30.49
682.374	30.96
682.819	30.19
683.264	30.48
683.708	29.97
684.153	30.5
684.597	30.51
685.042	30.04
685.486	30.26
685.93	30.1
686.375	30.37
686.819	30.54
687.263	30.34
687.708	30.59
688.152	31.1
688.596	30.68
689.04	30.99
689.485	31.28
689.929	30.31
690.373	30.15
690.817	30.77
691.261	30.83
691.705	30.52
692.149	31.05
692.593	29.98
693.037	30.99
693.481	30.81
693.925	31.13
694.369	30.4
694.812	30.82
695.256	30.72
695.7	30.83
696.144	31.08
696.587	30.38
697.031	31.12
697.475	30.12
697.918	31.17
698.362	31.24
698.806	31.41
699.249	31.4
699.693	30.58
700.136	31
700.58	31.35
701.023	31.54
701.466	32.05
701.91	31.53
702.353	31.04
702.796	30.93
703.24	30.85
703.683	31.51
704.126	32.17
704.569	30.87
705.013	31.7
705.456	31.9
705.899	31.46
706.342	31.79
706.785	31.6
707.228	31.84
707.671	31.73
708.114	32.98
708.557	31.54
709	31.42
709.443	31.9
709.886	32.32
710.328	31.75
710.771	32.02
711.214	32.71
711.657	31.94
712.099	31.38
712.542	32
712.985	31.99
713.427	31.4
713.87	31.91
714.313	32.39
714.755	31.81
715.198	32.04
715.64	31.88
716.083	32.55
716.525	31.73
716.967	31
717.41	32.32
717.852	32.34
718.295	31.85
718.737	32.22
719.179	31.83
719.621	31.57
720.063	32.18
720.506	31.94
720.948	32.12
721.39	32.76
721.832	32.2
722.274	32.87
722.716	31.99
723.158	32.66
723.6	32.02
724.042	32.27
724.484	31.42
724.926	32.91
725.368	32.36
725.81	31.39
726.251	32.12
726.693	32.63
727.135	32.23
727.577	31.66
728.018	32.62
728.46	32.49
728.902	32.44
729.343	32.9
729.785	33.07
730.226	32.31
730.668	32.13
731.109	33.37
731.551	32.03
731.992	32.75
732.434	32.83
732.875	32.46
733.316	33.2
733.758	32.14
734.199	33.31
734.64	33.38
735.081	32.95
735.523	32.94
735.964	31.77
736.405	32.66
736.846	33.63
737.287	32.67
737.728	32.99
738.169	32.58
738.61	33.02
739.051	33.27
739.492	32.72
739.933	32.87
740.374	33.59
740.815	33.1
741.256	32.48
741.696	32.84
742.137	32.74
742.578	33.11
743.019	32.32
743.459	32.39
743.9	32.67
744.341	32.46
744.781	33.09
745.222	32.94
745.662	33.43
746.103	32.65
746.543	32.77
746.984	33.03
747.424	32.92
747.865	33.22
748.305	33.14
748.745	33.34
749.186	32.65
749.626	32.87
750.066	32.06
750.506	33.56
750.947	33.72
751.387	32.96
751.827	32.92
752.267	33.49
752.707	33.22
753.147	32.72
753.587	33.45
754.027	33.18
754.467	33.47
754.907	32.96
755.347	33.62
755.787	33.34
756.227	34.1
756.667	33.76
757.107	33.14
757.546	33.19
757.986	32.52
758.426	33.4
758.865	33.16
759.305	32.88
759.745	33.23
760.184	33.53
760.624	33.58
761.063	33.14
761.503	33.32
761.943	33.39
762.382	33.59
762.821	32.48
763.261	34.33
763.7	33.74
764.14	33.37
764.579	33.23
765.018	34.61
765.457	34.17
765.897	33.38
766.336	33.69
766.775	33.58
767.214	33.41
767.653	32.9
768.092	33.67
768.531	33.86
768.97	33.32
769.409	33.78
769.848	33.48
770.287	33.65
770.726	33.54
771.165	33.75
771.604	33.36
772.043	33.8
772.482	34.08
772.92	33.65
773.359	33.9
773.798	34.02
774.237	34.17
774.675	33.22
775.114	33.71
775.553	33.78
775.991	33.56
776.43	33.37
776.868	34.69
777.307	33.38
777.745	33.08
778.184	33.85
778.622	33.17
779.06	33.87
779.499	34.42
779.937	34
780.375	33.44
780.814	34.41
781.252	34.16
781.69	33.78
782.128	33.73
782.566	33.84
783.004	34.28
783.443	34.36
783.881	34.4
784.319	33.67
784.757	34.22
785.195	33.5
785.633	34.15
786.071	33.4
786.508	34.47
786.946	34.57
787.384	34.01
787.822	33.83
788.26	34.4
788.697	33.98
789.135	33.81
789.573	34.05
790.011	34.3
790.448	34.3
790.886	33.91
791.323	34.5
791.761	33.78
792.198	34.3
792.636	34.23
793.073	33.86
793.511	34.36
793.948	34.19
794.386	33.7
794.823	34.36
795.26	34.02
795.698	34.28
796.135	34.86
796.572	34.85
797.009	34.44
797.446	34.08
797.884	34.13
798.321	34.23
798.758	34.49
799.195	34.36
799.632	34.65
800.069	34.43
800.506	34.31
800.943	35.14
801.38	34.24
801.817	34.84
802.254	33.87
802.69	34.52
803.127	34.51
803.564	33.83
804.001	33.89
804.438	34.47
804.874	34.83
805.311	34.56
805.748	34.75
806.184	34.11
806.621	34.44
807.057	34.21
807.494	34.93
807.93	34.89
808.367	34.87
808.803	34.92
809.24	35.06
809.676	34.99
810.112	34.71
810.549	34.31
810.985	34.32
811.421	34.45
811.857	34.63
812.294	34.76
812.73	33.89
813.166	34.92
813.602	34.49
814.038	34.89
814.474	34.38
814.91	34.45
815.346	34.76
815.782	34.21
816.218	34.05
816.654	34.7
817.09	33.96
817.526	34.65
817.962	34.64
818.398	34.81
818.833	35.05
819.269	34.69
819.705	34.89
820.141	34.45
820.576	34.79
821.012	34.62
821.447	34.71
821.883	34.97
822.319	34.97
822.754	35.17
823.19	34.91
823.625	34.95
824.061	35.2
824.496	34.91
824.931	34.37
825.367	35.08
825.802	34.52
826.237	35.25
826.673	35.02
827.108	34.97
827.543	34.89
827.978	35.34
828.413	35.11
828.849	34.65
829.284	34.58
829.719	34.67
830.154	35.04
830.589	35.3
831.024	34.59
831.459	35.07
831.894	34.98
832.329	35.35
832.763	35.11
833.198	35.38
833.633	34.99
834.068	34.2
834.503	35.25
834.937	35.29
835.372	35.17
835.807	35.08
836.241	34.82
836.676	35.26
837.111	34.92
837.545	34.95
837.98	35.27
838.414	35.04
838.849	35.54
839.283	35.5
839.717	35.02
840.152	35.31
840.586	35.38
841.021	34.87
841.455	35.83
841.889	35.49
842.323	35.45
842.758	35.19
843.192	35.44
843.626	35.31
844.06	35.89
844.494	35.65
844.928	35.61
845.362	35.37
845.796	35.59
846.23	35.44
846.664	35.11
847.098	35.75
847.532	35.77
847.966	35.43
848.4	34.98
848.834	35.49
849.267	35.1
849.701	35.5
850.135	35.68
850.569	35.59
851.002	35.75
851.436	35.51
851.87	35.09
852.303	35.68
852.737	35.88
853.17	35.77
853.604	36.11
854.037	35.88
854.471	35.65
854.904	35.71
855.337	35.65
855.771	35.63
856.204	36.16
856.637	35.8
857.071	35.48
857.504	35.72
857.937	35.69
858.37	35.42
858.804	35.98
859.237	35.99
859.67	35.74
860.103	35.19
860.536	35.27
860.969	35.41
861.402	35.49
861.835	35.78
862.268	35.77
862.701	35.59
863.134	35.22
863.566	35.68
863.999	35.75
864.432	35.9
864.865	35.84
865.298	35.29
865.73	36.11
866.163	35.76
866.596	35.6
867.028	36.3
867.461	35.81
867.893	36.09
868.326	35.69
868.758	35.81
869.191	36.3
869.623	35.56
870.056	35.92
870.488	35.69
870.92	36.18
871.353	35.2
871.785	36.32
872.217	35.58
872.65	35.87
873.082	36.36
873.514	36.25
873.946	35.84
874.378	35.89
874.81	35.78
875.243	36.08
875.675	36.49
876.107	35.96
876.539	36.34
876.971	35.96
877.403	35.87
877.834	36.5
878.266	35.97
878.698	36.24
879.13	36.22
879.562	36.64
879.994	36.19
880.425	35.94
880.857	35.94
881.289	36.4
881.72	36.42
882.152	35.77
882.584	36.08
883.015	36.38
883.447	36.02
883.878	35.71
884.31	36.71
884.741	36.2
885.173	36.29
885.604	35.97
886.035	36.41
886.467	36.4
886.898	36.21
887.329	35.88
887.76	36
888.192	35.94
888.623	36.07
889.054	36.13
889.485	35.97
889.916	36.11
890.347	36.36
890.778	36.23
891.209	36.19
891.64	36.26
892.071	36.28
892.502	36.57
892.933	35.9
893.364	36.7
893.795	36.13
894.226	36.16
894.657	35.53
895.087	36.37
895.518	36.48
895.949	36.45
896.38	36.54
896.81	36.61
897.241	36.39
897.671	36.14
898.102	36.47
898.533	36.65
898.963	36.56
899.394	36.56
899.824	36.85
900.254	36.69
900.685	36.54
901.115	36.37
901.546	36.15
901.976	36.28
902.406	36.44
902.836	36.22
903.267	36.83
903.697	36.56
904.127	36.6
904.557	36.29
904.987	36.5
905.417	36.05
905.847	36.35
906.277	36.57
906.707	36.51
907.137	36.74
907.567	36.84
907.997	36.83
908.427	36.46
908.857	36.89
909.287	36.92
909.717	36.51
910.146	36.63
910.576	36.74
911.006	36.92
911.436	36.64
911.865	36.42
912.295	36.97
912.724	36.57
913.154	36.54
913.584	36.62
914.013	36.77
914.443	36.22
914.872	36.94
915.302	36.77
915.731	36.48
916.16	36.91
916.59	36.37
917.019	36.41
917.448	36.66
917.878	36.54
918.307	37.16
918.736	37.08
919.165	36.64
919.594	36.49
920.023	36.77
920.452	36.34
920.882	36.75
921.311	36.54
921.74	37.05
922.169	36.39
922.597	36.84
923.026	36.48
923.455	37.05
923.884	37.07
924.313	36.8
924.742	37
925.171	37.25
925.599	36.93
926.028	36.99
926.457	36.64
926.885	37.27
927.314	37.11
927.743	36.49
928.171	36.87
928.6	37.16
929.028	36.98
929.457	36.51
929.885	37.22
930.314	37.1
930.742	36.79
931.17	36.73
931.599	36.9
932.027	36.75
932.455	37.24
932.884	36.89
933.312	36.94
933.74	36.58
934.168	37.07
934.596	37.12
935.025	36.66
935.453	37.04
935.881	36.65
936.309	37.63
936.737	36.79
937.165	36.97
937.593	37.49
938.021	37.28
938.449	37.44
938.876	36.49
939.304	36.93
939.732	36.4
940.16	36.86
940.588	36.67
941.015	37.8
941.443	37.16
941.871	37.15
942.298	37.32
942.726	37.29
943.154	37.08
943.581	37.31
944.009	37.19
944.436	37.41
944.864	37.1
945.291	37.09
945.718	37.24
946.146	36.9
946.573	37.24
947.001	37.02
947.428	37.02
947.855	37.99
948.282	36.56
948.71	36.82
949.137	37.87
949.564	37
949.991	37.48
950.418	36.83
950.845	36.8
951.272	37.66
951.699	37.37
952.126	37.32
952.553	37.42
952.98	37.48
953.407	37.32
953.834	37.31
954.261	36.91
954.688	37.44
955.114	37.14
955.541	37.91
955.968	37.43
956.395	37.2
956.821	37.41
957.248	37.83
957.674	37.52
958.101	37.48
958.528	37.52
958.954	37.62
959.381	37.02
959.807	37.35
960.234	37.15
960.66	37.08
961.086	37.75
961.513	37.39
961.939	37.49
962.365	37.65
962.792	37.41
963.218	37.67
963.644	37.99
964.07	37.4
964.496	37.52
964.923	37.38
965.349	37.64
965.775	37.83
966.201	37.16
966.627	37.21
967.053	37.3
967.479	37.23
967.905	37.58
968.331	37.65
968.756	37.97
969.182	37.69
969.608	37.79
970.034	37.67
970.46	37.35
970.885	37.47
971.311	37.93
971.737	37.62
972.162	37.5
972.588	37.92
973.014	37.74
973.439	37.27
973.865	37.7
974.29	37.69
974.716	37.41
975.141	37.64
975.567	37.8
975.992	37.54
976.417	37.49
976.843	37.61
977.268	37.89
977.693	38.2
978.119	37.42
978.544	37.68
978.969	38.39
979.394	37.83
979.819	38.3
980.244	37.82
980.669	37.79
981.095	37.51
981.52	37.94
981.945	37.96
982.369	37.64
982.794	38.07
983.219	38.13
983.644	37.76
984.069	37.84
984.494	38.01
984.919	37.89
985.343	37.95
985.768	37.81
986.193	37.5
986.618	38.05
987.042	38.25
987.467	37.8
987.891	37.86
988.316	37.95
988.741	38.23
989.165	38.07
989.59	38.12
990.014	38.09
990.438	37.86
990.863	38.18
991.287	38.27
991.712	38.09
992.136	37.85
992.56	37.91
992.984	38.23
993.409	38.37
993.833	37.73
994.257	37.88
994.681	38.31
995.105	37.89
995.529	37.83
995.953	37.89
996.377	38.16
996.801	38.48
997.225	38.05
997.649	38.3
998.073	38.4
998.497	38.32
998.921	37.76
999.345	37.4
999.769	38.19
1000.192	38.13
1000.616	38.44
1001.04	38.43
1001.464	38.27
1001.887	38.65
1002.311	38
1002.734	38.12
1003.158	38.47
1003.582	38.3
1004.005	38.22
1004.429	38.42
1004.852	38.06
1005.275	38.2
1005.699	38.2
1006.122	38.26
1006.546	38.22
1006.969	38.2
1007.392	37.98
1007.815	38.48
1008.239	38.16
1008.662	38.52
1009.085	38.47
1009.508	38.28
1009.931	38.61
1010.354	38.03
1010.778	38.55
1011.201	38.34
1011.624	38.47
1012.047	38.55
1012.469	38.28
1012.892	38.29
1013.315	38.07
1013.738	38.46
1014.161	38.2
1014.584	38.05
1015.007	38.53
1015.429	38.43
1015.852	38.23
1016.275	38.7
1016.697	38.66
1017.12	38.19
1017.543	38.42
1017.965	38.1
1018.388	39.07
1018.81	38.61
1019.233	38.5
1019.655	38.43
1020.078	38.34
1020.5	38.66
1020.922	38.71
1021.345	38.17
1021.767	38.3
1022.189	38.16
1022.612	39.23
1023.034	38.67
1023.456	38.37
1023.878	38.08
1024.301	38.81
1024.723	38.35
1025.145	38.52
1025.567	38.46
1025.989	38.55
1026.411	38.79
1026.833	38.86
1027.255	38.75
1027.677	38.67
1028.099	38.73
1028.52	38.56
1028.942	38.81
1029.364	38.95
1029.786	38.82
1030.208	38.42
1030.629	39.02
1031.051	38.86
1031.473	38.84
1031.894	39.14
1032.316	38.75
1032.738	38.84
1033.159	38.61
1033.581	39.12
1034.002	39.27
1034.424	38.94
1034.845	38.26
1035.267	39.17
1035.688	38.33
1036.109	37.82
1036.531	38.85
1036.952	39.17
1037.373	38.95
1037.794	38.73
1038.216	38.97
1038.637	39.11
1039.058	38.29
1039.479	38.89
1039.9	38.73
1040.321	38.83
1040.742	39
1041.163	38.44
1041.584	39.09
1042.005	38.71
1042.426	38.18
1042.847	38.62
1043.268	39.01
1043.689	38.94
1044.11	38.8
1044.53	39.32
1044.951	38.69
1045.372	38.87
1045.793	39.33
1046.213	38.73
1046.634	39.23
1047.055	39.47
1047.475	38.69
1047.896	38.66
1048.316	39.24
1048.737	38.67
1049.157	39.44
1049.578	39.02
1049.998	38.6
1050.419	38.91
1050.839	38.76
1051.259	38.57
1051.68	38.87
1052.1	38.3
1052.52	38.83
1052.94	38.5
1053.361	39.68
1053.781	38.46
1054.201	39.03
1054.621	38.68
1055.041	39.07
1055.461	38.6
1055.881	38.71
1056.301	38.96
1056.721	39.14
1057.141	39.34
1057.561	39.19
1057.981	38.95
1058.401	38.43
1058.82	38.46
1059.24	39.35
1059.66	39.52
1060.08	39.07
1060.499	38.38
1060.919	39.45
1061.339	39.93
1061.758	39.47
1062.178	39.42
1062.598	38.28
1063.017	38.61
1063.437	39.93
1063.856	38.57
1064.276	38.88
1064.695	38.92
1065.114	39.46
1065.534	39.4
1065.953	39.04
1066.372	39.43
1066.792	39.33
1067.211	38.58
1067.63	38.85
1068.049	38.83
1068.469	40.28
1068.888	38.59
1069.307	39.63
1069.726	39.62
1070.145	39.86
1070.564	39.96
1070.983	39.04
1071.402	39.73
1071.821	40.41
1072.24	40.19
1072.659	38.68
1073.078	38.37
1073.496	39.3
1073.915	39.2
1074.334	39.05
1074.753	38.94
1075.171	39.31
1075.59	40.16
1076.009	39.34
1076.427	39.89
1076.846	40.15
1077.265	39.06
1077.683	39.32
1078.102	39.47
1078.52	38.83
1078.939	39.02
1079.357	39.76
1079.776	39.03
1080.194	39.9
1080.612	38.39
1081.031	39.2
1081.449	39.38
1081.867	40.5
1082.285	40.53
1082.704	38.11
1083.122	39.19
1083.54	39.45
1083.958	40.06
1084.376	39.06
1084.794	40
1085.212	38.86
1085.63	38.77
1086.048	39.12
1086.466	39.62
1086.884	39.45
1087.302	38.81
1087.72	39.79
1088.138	40.7
1088.555	38.51
1088.973	39.31
1089.391	39.57
1089.809	39.31
1090.226	39.49
1090.644	39.52
1091.062	39.99
1091.479	38.54
1091.897	38.9
1092.314	38.18
1092.732	40.15
1093.15	38.36
1093.567	39.97
1093.984	39.48
1094.402	39.18
1094.819	39.09
1095.237	39.97
1095.654	40.28
1096.071	39.62
1096.488	37.64
1096.906	38.36
1097.323	40.26
1097.74	40.81
1098.157	38.87
1098.574	40.09
1098.991	38.28
1099.409	39.53
1099.826	39.7
1100.243	40
1100.66	40.08
1101.077	39.09
1101.494	38.49
1101.91	39.52
1102.327	39.76
1102.744	40.26
1103.161	39.61
1103.578	39.65
1103.994	39.94
1104.411	37.63
1104.828	38.98
1105.245	40.52
1105.661	40.03
1106.078	38.33
1106.494	38.06
1106.911	39.04
1107.328	41.08
1107.744	37.84
1108.161	38.65
1108.577	38.08
1108.993	38.85
1109.41	38.99
1109.826	39.07
1110.242	38.56
1110.659	40.66
1111.075	39.96
1111.491	39.81
1111.908	40.47
1112.324	40.17
1112.74	38.52
1113.156	39.95
1113.572	38.31
1113.988	40.92
1114.404	37.74
1114.82	36.25
1115.236	35.72
1115.652	37.44
1116.068	34.86
1116.484	36.98
1116.9	41.33
1117.316	38.48
1117.732	204.17
1118.147	85.42
1118.563	43.33
1118.979	283.33
