Data from JCR0003_Black1_Reflection_00002.txt Node
Date: Wed Jul 22 12:16:40 ACST 2020
User: Stacey Dix
Spectrometer: MAYP113282
Scans to average: 1
Trigger mode: 0
Integration Time (sec): 1.000000E-1
Electric dark correction enabled: true
Boxcar width: 0
XAxis mode: Wavelengths
Number of Pixels in Spectrum: 2068
>>>>>Begin Spectral Data<<<<<
198.791	-892.86
199.266	245
199.74	50
200.215	-62.5
200.69	231.13
201.164	96.87
201.639	97.37
202.114	74.46
202.588	93.82
203.063	102.67
203.537	73.38
204.012	57.5
204.486	74.67
204.961	46.41
205.435	71.53
205.909	50
206.384	59.6
206.858	97.6
207.332	91.12
207.807	72.06
208.281	96.07
208.755	77.73
209.229	36.59
209.703	73.63
210.177	92.58
210.651	55.97
211.126	85.29
211.6	51.12
212.074	50.99
212.548	39.94
213.021	60.61
213.495	43.13
213.969	36.96
214.443	73.51
214.917	83.64
215.391	75.79
215.864	61.38
216.338	84.22
216.812	51.52
217.286	39.14
217.759	75.55
218.233	50
218.706	71.84
219.18	57.98
219.654	53.64
220.127	44.3
220.6	40.44
221.074	38.59
221.547	35
222.021	73.95
222.494	29.14
222.967	37.9
223.441	51.29
223.914	31.9
224.387	42.68
224.86	38.78
225.334	39.14
225.807	36.1
226.28	31.25
226.753	29.76
227.226	25.25
227.699	32.24
228.172	28.69
228.645	17.38
229.118	22.57
229.591	14.57
230.064	21.31
230.537	15.56
231.01	19.1
231.482	15.43
231.955	5.73
232.428	17.63
232.901	12.07
233.373	7.89
233.846	16.33
234.319	14.61
234.791	12.67
235.264	14.07
235.736	6.83
236.209	17.02
236.681	14.17
237.154	14.56
237.626	12.35
238.099	9.15
238.571	7.35
239.044	11.56
239.516	11.09
239.988	11.52
240.46	9.85
240.933	10.88
241.405	11.32
241.877	9.73
242.349	9.67
242.821	10.83
243.293	9.98
243.765	6.7
244.237	11.03
244.71	11.64
245.181	12.11
245.653	12.58
246.125	8.84
246.597	6.95
247.069	6.45
247.541	4.97
248.013	6.69
248.485	10.43
248.956	5.99
249.428	5.68
249.9	7.69
250.371	8.59
250.843	4.12
251.315	5.81
251.786	6.72
252.258	5.15
252.729	6.67
253.201	5.53
253.672	6.51
254.144	6.14
254.615	4.24
255.086	5.63
255.558	4.87
256.029	5.88
256.5	5.75
256.972	5.01
257.443	7.71
257.914	3.49
258.385	6.74
258.856	4.23
259.327	6.56
259.799	4.72
260.27	5.64
260.741	5.79
261.212	5.06
261.683	5.78
262.154	4.68
262.624	5.05
263.095	3.47
263.566	4.71
264.037	4.3
264.508	6.86
264.979	5.71
265.449	3.83
265.92	5.96
266.391	5.27
266.861	5.97
267.332	5.65
267.803	5.03
268.273	5.35
268.744	6.07
269.214	4.81
269.685	4.52
270.155	6.19
270.626	5.89
271.096	6.99
271.566	7.46
272.037	4.66
272.507	3.47
272.977	9
273.448	4.52
273.918	5.96
274.388	7.48
274.858	9.9
275.328	5.1
275.798	5.89
276.268	4.46
276.738	5.1
277.208	5.63
277.678	7.52
278.148	5.84
278.618	6.46
279.088	6.23
279.558	5.73
280.028	8.66
280.498	5.46
280.968	4.94
281.437	7.46
281.907	5.4
282.377	5.91
282.847	4.45
283.316	7.66
283.786	4.97
284.255	4.95
284.725	4.76
285.194	6.07
285.664	7.71
286.133	3.39
286.603	5.24
287.072	5.26
287.542	4.27
288.011	4.73
288.48	4.17
288.95	5.77
289.419	6.21
289.888	7.58
290.357	5.19
290.827	6.27
291.296	5.35
291.765	6.07
292.234	5.38
292.703	3.71
293.172	5.21
293.641	5.68
294.11	5.59
294.579	4.99
295.048	5.93
295.517	6.23
295.986	5.18
296.455	7.18
296.923	3.08
297.392	6.95
297.861	5.99
298.33	5.63
298.798	4.67
299.267	6.47
299.736	8.35
300.204	5.65
300.673	7.06
301.141	5.39
301.61	4.36
302.079	6.14
302.547	6.33
303.015	5.63
303.484	5.67
303.952	5.72
304.421	5.67
304.889	6.25
305.357	7.18
305.825	6.24
306.294	5.51
306.762	4.41
307.23	5.22
307.698	6.5
308.166	6.44
308.634	6.84
309.103	4.57
309.571	4.49
310.039	4.9
310.507	5.09
310.975	6.12
311.442	5.91
311.91	6.69
312.378	5.27
312.846	5.76
313.314	5.91
313.782	4.33
314.249	5.36
314.717	6.94
315.185	4.74
315.652	4.88
316.12	6.92
316.588	4.74
317.055	4.56
317.523	4.18
317.99	6.77
318.458	5.78
318.925	6.57
319.393	3.57
319.86	5.94
320.328	4.23
320.795	6.14
321.262	3.83
321.73	5.47
322.197	6.26
322.664	4.52
323.131	6.52
323.598	6.4
324.066	4.16
324.533	6.01
325	4.53
325.467	4.74
325.934	5.87
326.401	4.72
326.868	6.14
327.335	5.16
327.802	6.06
328.269	4.68
328.735	7.65
329.202	6.72
329.669	2.45
330.136	5.28
330.603	6.66
331.069	4.52
331.536	4.36
332.003	5.84
332.469	4.47
332.936	3.97
333.402	4.32
333.869	5.89
334.336	3.32
334.802	4.32
335.268	4.5
335.735	5.67
336.201	4.36
336.668	6.28
337.134	7.22
337.6	5.01
338.067	5.01
338.533	5.96
338.999	4.35
339.465	3.37
339.931	3.8
340.398	4.33
340.864	4.35
341.33	5.46
341.796	4.44
342.262	5.96
342.728	4.77
343.194	4.13
343.66	4.85
344.126	4.5
344.592	3.14
345.057	6.78
345.523	4.03
345.989	5.75
346.455	3.41
346.921	4.7
347.386	4.12
347.852	4.82
348.318	5.84
348.783	5.84
349.249	4.4
349.714	5.02
350.18	3.42
350.645	8.59
351.111	4.82
351.576	6.16
352.042	4.29
352.507	3.67
352.973	4.91
353.438	2.39
353.903	6.34
354.369	6.26
354.834	4.9
355.299	4.53
355.764	5.78
356.229	4.78
356.695	3.97
357.16	3.56
357.625	5.86
358.09	3.57
358.555	2.97
359.02	5.75
359.485	5.6
359.95	4.93
360.415	5.22
360.879	5.98
361.344	6.26
361.809	4.63
362.274	4.92
362.739	6.3
363.203	4.27
363.668	4.34
364.133	4.06
364.597	3.34
365.062	5.87
365.527	4.25
365.991	3.17
366.456	5.55
366.92	5.46
367.385	3.97
367.849	3.91
368.314	5.07
368.778	4.11
369.242	3.23
369.707	5.5
370.171	5.39
370.635	5.73
371.1	4.65
371.564	6.46
372.028	4.2
372.492	6.42
372.956	3.19
373.42	6.37
373.884	3.73
374.348	4.47
374.812	3.25
375.276	4.59
375.74	2.38
376.204	5.07
376.668	2.44
377.132	4.06
377.596	2.63
378.06	5.48
378.524	3.5
378.987	4.81
379.451	3.51
379.915	4.8
380.378	3.19
380.842	3.03
381.306	4.33
381.769	3.95
382.233	2.14
382.696	3.79
383.16	4.41
383.623	3.9
384.087	5.5
384.55	4.45
385.014	3.27
385.477	5.74
385.94	4.69
386.404	5.82
386.867	5.13
387.33	3.74
387.793	4.5
388.256	3.43
388.72	3.26
389.183	4.48
389.646	3.86
390.109	3.31
390.572	4.29
391.035	3.79
391.498	4.09
391.961	4.02
392.424	3.22
392.887	4.25
393.35	3.62
393.812	4.48
394.275	2.93
394.738	1.91
395.201	4.6
395.664	4.06
396.126	4.46
396.589	3.67
397.052	3.27
397.514	4.41
397.977	3.53
398.439	5.53
398.902	3.62
399.364	3.71
399.827	4.19
400.289	5.43
400.752	5
401.214	4.25
401.676	4.73
402.139	2.92
402.601	4.84
403.063	5.17
403.525	5.41
403.988	3.47
404.45	5.43
404.912	3.92
405.374	4.13
405.836	5.64
406.298	4.63
406.76	3.71
407.222	4.45
407.684	3.91
408.146	3.08
408.608	3.35
409.07	3
409.532	4.79
409.994	3.59
410.456	4.93
410.917	4.33
411.379	3.32
411.841	3.26
412.303	4.16
412.764	4.26
413.226	3.8
413.687	3.76
414.149	2.62
414.611	4.13
415.072	3.75
415.534	3.45
415.995	3.82
416.457	4.16
416.918	3.59
417.379	3.31
417.841	3.67
418.302	3.93
418.763	4.69
419.225	2.94
419.686	2.82
420.147	3.22
420.608	4.47
421.069	2.78
421.53	4.49
421.991	2.99
422.453	3.64
422.914	3.05
423.375	2.7
423.836	4.22
424.297	4.52
424.757	4.55
425.218	5.9
425.679	4.02
426.14	4.37
426.601	4.14
427.062	4.93
427.522	5.24
427.983	4.26
428.444	3.37
428.904	7.25
429.365	4.09
429.826	7.35
430.286	6.73
430.747	8.17
431.207	5.27
431.668	5.34
432.128	8.56
432.589	7.29
433.049	5.83
433.509	4.54
433.97	5.49
434.43	6.58
434.89	3.9
435.351	6.74
435.811	6.43
436.271	6.34
436.731	5.56
437.191	5.32
437.651	4.37
438.112	5.34
438.572	6.48
439.032	5.63
439.492	5.11
439.952	6.37
440.412	2.75
440.871	4.56
441.331	5.85
441.791	6.26
442.251	5.47
442.711	7.26
443.171	4.34
443.63	5.38
444.09	4.86
444.55	7.35
445.009	4.1
445.469	3.98
445.929	5.14
446.388	4.9
446.848	6.32
447.307	4.89
447.767	3.91
448.226	4.69
448.686	5.34
449.145	5.03
449.604	4.44
450.064	5.47
450.523	5.95
450.982	6.56
451.442	3.73
451.901	5.37
452.36	4.49
452.819	5.71
453.278	5.89
453.737	5.5
454.197	4.49
454.656	3.44
455.115	9.2
455.574	3.94
456.033	6.01
456.492	6.3
456.95	3.72
457.409	5.09
457.868	7.32
458.327	4.41
458.786	5.44
459.245	6.45
459.703	4.67
460.162	7.31
460.621	6.69
461.079	5.09
461.538	4.41
461.997	7.01
462.455	3.52
462.914	4.69
463.372	4.47
463.831	5.87
464.289	4.09
464.748	7.24
465.206	6.28
465.664	4.16
466.123	6.94
466.581	4.82
467.039	4.05
467.497	4.73
467.956	4.73
468.414	5.49
468.872	7.01
469.33	9.15
469.788	2.83
470.246	4.59
470.704	6.61
471.162	3.31
471.62	7.84
472.078	8.18
472.536	7.13
472.994	6.26
473.452	6.44
473.91	4.77
474.368	4.34
474.826	5.96
475.283	7.94
475.741	4.14
476.199	4.86
476.656	7.6
477.114	7.21
477.572	4.32
478.029	5.2
478.487	7.37
478.944	7.57
479.402	4.28
479.859	8.29
480.317	6.2
480.774	6.16
481.232	5.36
481.689	8.57
482.146	5.22
482.604	8.42
483.061	5.62
483.518	6.35
483.975	4.58
484.433	4.08
484.89	5.86
485.347	5.58
485.804	7.44
486.261	6.12
486.718	4.77
487.175	7.12
487.632	7.98
488.089	8.36
488.546	5.99
489.003	4.79
489.46	7.48
489.917	8.33
490.373	9.47
490.83	6.83
491.287	5.95
491.744	5.68
492.2	5.11
492.657	5.29
493.114	4.03
493.57	3.99
494.027	8.18
494.484	8.34
494.94	5.9
495.397	7.26
495.853	7.15
496.31	5.73
496.766	3.52
497.222	7.64
497.679	6.37
498.135	6.24
498.591	5.77
499.048	7.18
499.504	6.44
499.96	5.97
500.416	5.1
500.872	3.27
501.329	7.19
501.785	7.6
502.241	3.4
502.697	6.46
503.153	5.92
503.609	8.37
504.065	5.77
504.521	4.58
504.977	7.28
505.432	5.21
505.888	6.27
506.344	2.79
506.8	5.74
507.256	2.67
507.711	5.49
508.167	6
508.623	3.6
509.078	5.77
509.534	7.66
509.99	4.55
510.445	6.75
510.901	3.96
511.356	4.45
511.812	5.15
512.267	5.45
512.722	4.6
513.178	5
513.633	3.1
514.089	4.23
514.544	4.72
514.999	3.97
515.454	5.84
515.91	5.22
516.365	5.76
516.82	3.85
517.275	4.27
517.73	6.56
518.185	6.07
518.64	5.61
519.095	3.8
519.55	3.79
520.005	5.01
520.46	3.4
520.915	6.98
521.37	4.65
521.825	3.79
522.28	3.86
522.734	5.85
523.189	3.88
523.644	4.45
524.099	6.29
524.553	2.96
525.008	4.01
525.462	3.37
525.917	3.54
526.372	5.64
526.826	4.83
527.281	4.12
527.735	5.13
528.19	4.82
528.644	5.49
529.098	4.04
529.553	4.2
530.007	5.79
530.461	4.77
530.916	4.66
531.37	5.71
531.824	5.29
532.278	5.03
532.732	5.29
533.186	5.47
533.641	5.2
534.095	5.83
534.549	3.97
535.003	2.84
535.457	4.7
535.911	4.29
536.365	6.24
536.818	6.38
537.272	3.25
537.726	5.24
538.18	6.25
538.634	6.21
539.087	4.91
539.541	4.35
539.995	4.98
540.449	6.57
540.902	4.29
541.356	4.32
541.809	4.71
542.263	5.29
542.716	3.53
543.17	4.34
543.623	5
544.077	4.58
544.53	3.69
544.984	4.4
545.437	5.12
545.89	2.34
546.344	4.64
546.797	4.78
547.25	1.8
547.703	5.32
548.157	5.9
548.61	3.4
549.063	5.38
549.516	4.61
549.969	4.23
550.422	4.79
550.875	3.23
551.328	4.02
551.781	4.85
552.234	5.84
552.687	6.35
553.14	3.44
553.592	4.5
554.045	5.14
554.498	4.73
554.951	4.03
555.404	4.46
555.856	4.35
556.309	4.15
556.762	4.72
557.214	4.83
557.667	4.12
558.119	4.93
558.572	2.75
559.024	3.93
559.477	2.49
559.929	4.36
560.382	5.83
560.834	3.91
561.286	4.96
561.739	4.2
562.191	3.22
562.643	4.69
563.095	3.87
563.548	4.02
564	2.69
564.452	3.96
564.904	4.05
565.356	4.56
565.808	3.71
566.26	3.71
566.712	3.28
567.164	3.27
567.616	2.97
568.068	3.13
568.52	2.77
568.972	4.39
569.424	2.72
569.876	3.48
570.327	3.51
570.779	4.32
571.231	3.99
571.682	3.89
572.134	4.56
572.586	2.82
573.037	3.92
573.489	3.27
573.941	2.72
574.392	2.99
574.844	4.01
575.295	3.71
575.746	2.61
576.198	4.84
576.649	3.75
577.101	3.61
577.552	3.41
578.003	3.61
578.454	2.76
578.906	2.88
579.357	2.7
579.808	3.58
580.259	4.65
580.71	2.06
581.161	3.29
581.612	3.82
582.064	3.13
582.515	3.77
582.965	4.17
583.416	3.7
583.867	1.93
584.318	3.09
584.769	2.41
585.22	2.79
585.671	4.1
586.122	4.27
586.572	3.2
587.023	3.22
587.474	4.62
587.924	3.57
588.375	3.47
588.826	2.71
589.276	3.49
589.727	4.15
590.177	4.25
590.628	4.09
591.078	1.81
591.529	3.49
591.979	3.31
592.429	3.99
592.88	2.85
593.33	4.2
593.78	3.41
594.231	2
594.681	3.87
595.131	3.47
595.581	3.91
596.031	4.32
596.481	3.91
596.932	3.05
597.382	3.79
597.832	3.12
598.282	4.1
598.732	3.59
599.182	3.57
599.632	2.84
600.081	3.52
600.531	3.66
600.981	5.1
601.431	3.64
601.881	4.55
602.33	2.75
602.78	3.31
603.23	4.96
603.679	3.31
604.129	3.33
604.579	2.81
605.028	4.38
605.478	2.83
605.927	4.07
606.377	3.48
606.826	2.88
607.276	3.84
607.725	2.85
608.175	3.48
608.624	3.19
609.073	2.24
609.522	3.64
609.972	2.84
610.421	2.97
610.87	3.19
611.319	1.85
611.768	4.27
612.218	2.92
612.667	3.55
613.116	2.67
613.565	3.74
614.014	2.68
614.463	2.23
614.912	3.16
615.361	3.09
615.81	3.77
616.258	3.09
616.707	3.68
617.156	3.92
617.605	3.35
618.054	3.38
618.502	3.75
618.951	2.64
619.4	2.68
619.848	2.65
620.297	3.31
620.745	2.89
621.194	3.16
621.642	3.32
622.091	3.04
622.539	2.83
622.988	2.82
623.436	2.82
623.885	3.11
624.333	3.87
624.781	2.31
625.23	4.15
625.678	2.94
626.126	3.31
626.574	2.17
627.022	2.91
627.471	2.75
627.919	2.96
628.367	1.82
628.815	3.45
629.263	2.74
629.711	2.59
630.159	3.13
630.607	2.86
631.055	3.17
631.503	2.23
631.95	3
632.398	2.31
632.846	3
633.294	3.26
633.742	4.05
634.189	2.76
634.637	3.65
635.085	1.95
635.532	2.49
635.98	2.52
636.427	2.85
636.875	2.83
637.323	3.4
637.77	3.09
638.217	3.23
638.665	2.64
639.112	2.57
639.56	2.91
640.007	3.34
640.454	2.92
640.902	3.1
641.349	3
641.796	3.28
642.243	3.16
642.69	2.74
643.138	2.82
643.585	2.85
644.032	3.03
644.479	3.45
644.926	2.54
645.373	2.76
645.82	2.75
646.267	3.31
646.714	2.99
647.161	2.78
647.607	3
648.054	1.99
648.501	2.6
648.948	3.06
649.395	2.39
649.841	3.08
650.288	2.82
650.735	3.26
651.181	2.45
651.628	2.63
652.075	3.01
652.521	2.53
652.968	2.88
653.414	2.5
653.861	2.21
654.307	2.73
654.753	2.52
655.2	3.11
655.646	2.44
656.092	2.94
656.539	2.62
656.985	3.79
657.431	2.55
657.877	2.81
658.324	2.84
658.77	2.87
659.216	2.73
659.662	2.78
660.108	2.92
660.554	2.5
661	2.66
661.446	3.06
661.892	3.21
662.338	3.33
662.784	2.91
663.23	2.28
663.675	2.8
664.121	3.71
664.567	2.61
665.013	2.36
665.458	2.08
665.904	3
666.35	2.37
666.795	3.02
667.241	3.13
667.687	2.99
668.132	2.78
668.578	1.82
669.023	1.95
669.469	2.43
669.914	2.71
670.359	2.71
670.805	3.2
671.25	2.55
671.695	2.65
672.141	2.49
672.586	2.3
673.031	2.97
673.476	3.06
673.922	3.04
674.367	2.62
674.812	3
675.257	2.61
675.702	2.63
676.147	2.82
676.592	3.01
677.037	2.49
677.482	2.83
677.927	2.87
678.372	2.41
678.817	3.06
679.261	2.68
679.706	2.51
680.151	2.01
680.596	2.53
681.04	3.07
681.485	2.59
681.93	2.38
682.374	2.69
682.819	2.05
683.264	3.4
683.708	3.37
684.153	2.91
684.597	2.95
685.042	2.39
685.486	2.65
685.93	2.6
686.375	2.56
686.819	2.61
687.263	2.5
687.708	3
688.152	2.6
688.596	3.36
689.04	2.37
689.485	3.26
689.929	2.94
690.373	2.29
690.817	2.17
691.261	2.62
691.705	2.58
692.149	2.69
692.593	2.63
693.037	2.95
693.481	2.78
693.925	2.42
694.369	2.82
694.812	3.16
695.256	2.92
695.7	2.1
696.144	2.58
696.587	2.67
697.031	2.42
697.475	2.54
697.918	2.67
698.362	2.84
698.806	2.55
699.249	2.55
699.693	2.89
700.136	2.3
700.58	3.03
701.023	2.57
701.466	2.74
701.91	2.86
702.353	2.53
702.796	2.36
703.24	2.59
703.683	2.49
704.126	2.7
704.569	2.78
705.013	2.14
705.456	3.14
705.899	2.45
706.342	2.64
706.785	2.66
707.228	2.74
707.671	2.48
708.114	2.79
708.557	2.2
709	2.82
709.443	2.77
709.886	2.38
710.328	2.34
710.771	2.84
711.214	3.25
711.657	2.79
712.099	3.31
712.542	2.15
712.985	2.8
713.427	2.77
713.87	2.88
714.313	2.68
714.755	2.39
715.198	2.81
715.64	3.01
716.083	2.17
716.525	2.69
716.967	2.48
717.41	3.37
717.852	2.76
718.295	2.7
718.737	3.12
719.179	2.57
719.621	3.16
720.063	2.46
720.506	2.52
720.948	2.92
721.39	2.17
721.832	2.53
722.274	3.06
722.716	3.02
723.158	2.74
723.6	3.1
724.042	3.19
724.484	2.35
724.926	2.58
725.368	3.02
725.81	2.56
726.251	3.53
726.693	2.39
727.135	3.24
727.577	3.7
728.018	2.74
728.46	3.26
728.902	2.92
729.343	3.31
729.785	3.27
730.226	3.49
730.668	2.85
731.109	3.47
731.551	2.64
731.992	3.14
732.434	3.2
732.875	2.32
733.316	2.92
733.758	2.77
734.199	3.17
734.64	2.87
735.081	2.47
735.523	3.09
735.964	2.66
736.405	3.14
736.846	2.95
737.287	3.34
737.728	2.34
738.169	2.82
738.61	2.87
739.051	2.69
739.492	2.74
739.933	2.56
740.374	2.93
740.815	2.62
741.256	2.93
741.696	2.63
742.137	3.03
742.578	2.71
743.019	3.25
743.459	3.27
743.9	2.61
744.341	2.72
744.781	2.72
745.222	2.87
745.662	3.32
746.103	3.03
746.543	2.6
746.984	2.77
747.424	3.05
747.865	2.69
748.305	2.82
748.745	3.2
749.186	3.13
749.626	3.44
750.066	3.01
750.506	2.62
750.947	2.66
751.387	3.22
751.827	3.39
752.267	3.06
752.707	2.85
753.147	3.04
753.587	2.68
754.027	3.52
754.467	2.7
754.907	2.96
755.347	2.81
755.787	3.14
756.227	2.85
756.667	2.89
757.107	2.75
757.546	3.62
757.986	2.8
758.426	2.93
758.865	3.27
759.305	3.38
759.745	3.07
760.184	3.14
760.624	2.37
761.063	3.11
761.503	3.01
761.943	3.05
762.382	2.79
762.821	3.14
763.261	2.83
763.7	3.13
764.14	3.35
764.579	3.61
765.018	3.18
765.457	2.83
765.897	3.32
766.336	2.59
766.775	3.24
767.214	2.81
767.653	2.65
768.092	3.09
768.531	2.73
768.97	3.34
769.409	2.85
769.848	2.72
770.287	3.23
770.726	3.2
771.165	2.7
771.604	2.99
772.043	2.99
772.482	2.8
772.92	3.05
773.359	3.22
773.798	3.22
774.237	3.29
774.675	2.9
775.114	3.22
775.553	3.74
775.991	2.91
776.43	3.26
776.868	3.23
777.307	2.68
777.745	2.89
778.184	2.47
778.622	3.23
779.06	3.12
779.499	3.2
779.937	2.63
780.375	3.02
780.814	3.22
781.252	3.41
781.69	2.9
782.128	2.79
782.566	3.28
783.004	3.3
783.443	2.9
783.881	2.99
784.319	2.86
784.757	3.4
785.195	2.73
785.633	2.98
786.071	2.79
786.508	2.72
786.946	3.2
787.384	2.74
787.822	2.88
788.26	3.07
788.697	3.52
789.135	3.39
789.573	3.3
790.011	2.64
790.448	3.4
790.886	2.81
791.323	2.97
791.761	2.78
792.198	3.22
792.636	3.22
793.073	2.87
793.511	2.92
793.948	3.84
794.386	3.2
794.823	3.46
795.26	3.06
795.698	3.29
796.135	3.3
796.572	3.1
797.009	2.9
797.446	2.88
797.884	2.91
798.321	2.84
798.758	2.62
799.195	3.26
799.632	3.26
800.069	3.11
800.506	3
800.943	3.09
801.38	2.82
801.817	2.93
802.254	3.4
802.69	3.31
803.127	3.13
803.564	2.81
804.001	3.44
804.438	3.63
804.874	3.15
805.311	3.22
805.748	3.02
806.184	2.97
806.621	3.18
807.057	3.01
807.494	2.93
807.93	3.74
808.367	3.68
808.803	3.01
809.24	3.33
809.676	3.15
810.112	3.23
810.549	3.55
810.985	3.6
811.421	3.11
811.857	3.35
812.294	3.27
812.73	3.17
813.166	2.93
813.602	3.37
814.038	3.76
814.474	3.02
814.91	2.9
815.346	3.22
815.782	3.3
816.218	3.36
816.654	2.7
817.09	3.26
817.526	3.31
817.962	3.11
818.398	3.3
818.833	3.48
819.269	3.28
819.705	3.31
820.141	3.55
820.576	3.27
821.012	3.38
821.447	3.7
821.883	3.43
822.319	3.11
822.754	3.74
823.19	3.47
823.625	3.2
824.061	3.27
824.496	3.15
824.931	3.59
825.367	3.35
825.802	3.39
826.237	3.32
826.673	3.46
827.108	3.45
827.543	3.52
827.978	3.58
828.413	3.22
828.849	3.23
829.284	3.5
829.719	3.37
830.154	3.48
830.589	3.46
831.024	3.66
831.459	3.66
831.894	3.5
832.329	3.44
832.763	3.34
833.198	3.72
833.633	3.46
834.068	3.27
834.503	3.52
834.937	3.4
835.372	3.06
835.807	3.83
836.241	3.71
836.676	3.54
837.111	3.42
837.545	3.53
837.98	3.76
838.414	3.29
838.849	3.52
839.283	3.38
839.717	3.52
840.152	3.52
840.586	3.31
841.021	3.81
841.455	3.75
841.889	3.6
842.323	3.3
842.758	3.81
843.192	3.58
843.626	3.75
844.06	3.42
844.494	3.83
844.928	3.41
845.362	3.87
845.796	3.56
846.23	4
846.664	3.72
847.098	3.87
847.532	3.76
847.966	3.83
848.4	3.74
848.834	3.38
849.267	3.7
849.701	3.64
850.135	3.8
850.569	3.6
851.002	4.12
851.436	3.41
851.87	3.41
852.303	3.78
852.737	3.86
853.17	3.69
853.604	3.44
854.037	3.7
854.471	3.46
854.904	3.95
855.337	3.58
855.771	3.72
856.204	3.73
856.637	3.87
857.071	3.76
857.504	3.83
857.937	3.73
858.37	3.61
858.804	4.03
859.237	3.71
859.67	4.13
860.103	3.81
860.536	3.75
860.969	3.97
861.402	3.83
861.835	4
862.268	3.76
862.701	4.07
863.134	3.91
863.566	3.67
863.999	3.77
864.432	3.78
864.865	3.76
865.298	4.06
865.73	3.95
866.163	3.62
866.596	3.82
867.028	3.77
867.461	4.13
867.893	4.15
868.326	4.19
868.758	3.98
869.191	4.01
869.623	3.77
870.056	4.02
870.488	3.95
870.92	4.01
871.353	4.01
871.785	4.01
872.217	3.71
872.65	3.83
873.082	4.03
873.514	4.01
873.946	4.03
874.378	4.17
874.81	4.26
875.243	4.15
875.675	3.96
876.107	3.94
876.539	4.12
876.971	3.93
877.403	4.06
877.834	3.92
878.266	3.98
878.698	4.19
879.13	4.2
879.562	4.07
879.994	3.96
880.425	4.48
880.857	4.07
881.289	4.09
881.72	4.71
882.152	4.41
882.584	3.98
883.015	4.25
883.447	4.29
883.878	4.49
884.31	4.62
884.741	4.07
885.173	4.3
885.604	4.17
886.035	4.11
886.467	4.55
886.898	4.26
887.329	4.31
887.76	4.2
888.192	4.08
888.623	4.07
889.054	4.38
889.485	4.23
889.916	4.35
890.347	4.23
890.778	4.18
891.209	4.18
891.64	4.25
892.071	4.34
892.502	4.55
892.933	4.77
893.364	4.3
893.795	4.78
894.226	4.47
894.657	4.23
895.087	4.64
895.518	4.7
895.949	4.58
896.38	4.57
896.81	4.2
897.241	4.43
897.671	4.7
898.102	4.57
898.533	4.55
898.963	4.62
899.394	4.24
899.824	4.51
900.254	4.48
900.685	4.42
901.115	4.71
901.546	4.61
901.976	4.42
902.406	4.76
902.836	4.62
903.267	4.52
903.697	4.61
904.127	4.6
904.557	4.38
904.987	4.66
905.417	4.71
905.847	4.76
906.277	4.75
906.707	4.5
907.137	4.93
907.567	4.59
907.997	4.77
908.427	4.63
908.857	4.89
909.287	4.64
909.717	4.77
910.146	4.67
910.576	4.92
911.006	4.89
911.436	5.15
911.865	4.74
912.295	4.82
912.724	4.61
913.154	4.91
913.584	4.77
914.013	4.91
914.443	5.05
914.872	4.85
915.302	4.81
915.731	4.94
916.16	4.94
916.59	5.05
917.019	5.09
917.448	5.14
917.878	4.87
918.307	4.94
918.736	5.13
919.165	4.8
919.594	4.8
920.023	5.1
920.452	5.11
920.882	5.09
921.311	4.96
921.74	4.82
922.169	5.09
922.597	4.93
923.026	5.13
923.455	4.97
923.884	5.28
924.313	5.04
924.742	4.98
925.171	5.32
925.599	5.45
926.028	5.02
926.457	5.1
926.885	5.13
927.314	5.2
927.743	5.26
928.171	5.21
928.6	4.93
929.028	5.41
929.457	5.27
929.885	5.2
930.314	5.3
930.742	5.04
931.17	5.41
931.599	4.96
932.027	5.6
932.455	5.64
932.884	5.17
933.312	5.61
933.74	5.49
934.168	5.21
934.596	5.49
935.025	5.87
935.453	5.47
935.881	5.59
936.309	5.58
936.737	5.39
937.165	5.48
937.593	5.9
938.021	5.85
938.449	5.58
938.876	5.8
939.304	5.71
939.732	5.99
940.16	6.11
940.588	6.29
941.015	5.38
941.443	5.95
941.871	5.41
942.298	6.03
942.726	5.79
943.154	5.6
943.581	5.84
944.009	5.77
944.436	5.91
944.864	5.89
945.291	5.61
945.718	6.05
946.146	6.43
946.573	6.19
947.001	6.26
947.428	5.85
947.855	6.04
948.282	6.06
948.71	6.04
949.137	6.28
949.564	6.08
949.991	6.08
950.418	5.77
950.845	5.52
951.272	6.16
951.699	6
952.126	5.49
952.553	6.12
952.98	5.68
953.407	5.96
953.834	6.36
954.261	5.93
954.688	6.03
955.114	6.01
955.541	6
955.968	5.86
956.395	6.27
956.821	6.15
957.248	6.02
957.674	6.02
958.101	6.08
958.528	6.03
958.954	6.12
959.381	6.18
959.807	6.39
960.234	6.18
960.66	6.04
961.086	6.14
961.513	6.13
961.939	6.31
962.365	6.32
962.792	6.41
963.218	6.2
963.644	6.14
964.07	6.16
964.496	6.34
964.923	6.4
965.349	6.1
965.775	6.49
966.201	6.4
966.627	6.72
967.053	6.66
967.479	6.51
967.905	6.69
968.331	6.32
968.756	6.55
969.182	6.6
969.608	6.46
970.034	6.85
970.46	6.35
970.885	6.47
971.311	6.42
971.737	6.37
972.162	6.52
972.588	6.54
973.014	6.51
973.439	6.26
973.865	6.57
974.29	6.44
974.716	6.66
975.141	6.54
975.567	6.53
975.992	6.62
976.417	6.5
976.843	6.49
977.268	6.88
977.693	6.81
978.119	6.48
978.544	6.98
978.969	6.89
979.394	6.79
979.819	6.9
980.244	6.9
980.669	6.65
981.095	6.6
981.52	6.69
981.945	6.75
982.369	6.96
982.794	6.65
983.219	6.89
983.644	6.93
984.069	6.89
984.494	6.68
984.919	6.91
985.343	6.86
985.768	6.85
986.193	7.05
986.618	6.6
987.042	7.03
987.467	6.98
987.891	7.2
988.316	6.95
988.741	7.01
989.165	7.27
989.59	6.96
990.014	7.17
990.438	7.19
990.863	7.16
991.287	7.23
991.712	7.27
992.136	6.82
992.56	7.14
992.984	7.25
993.409	7.47
993.833	7.38
994.257	7.21
994.681	7.35
995.105	7.15
995.529	7.34
995.953	7.33
996.377	7.72
996.801	7.58
997.225	7.55
997.649	7.39
998.073	7.28
998.497	7.3
998.921	7.47
999.345	7.43
999.769	7.28
1000.192	7.3
1000.616	7.48
1001.04	7.74
1001.464	7.51
1001.887	7.69
1002.311	7.7
1002.734	7.55
1003.158	7.9
1003.582	7.62
1004.005	7.72
1004.429	7.37
1004.852	7.75
1005.275	7.66
1005.699	7.87
1006.122	8.07
1006.546	7.88
1006.969	8.11
1007.392	7.8
1007.815	7.85
1008.239	7.93
1008.662	7.98
1009.085	7.75
1009.508	8.03
1009.931	7.83
1010.354	8.06
1010.778	7.72
1011.201	8.16
1011.624	7.84
1012.047	8.16
1012.469	8.02
1012.892	8.02
1013.315	8.1
1013.738	8.37
1014.161	8.05
1014.584	8.1
1015.007	8.15
1015.429	8.16
1015.852	8.28
1016.275	8.31
1016.697	8.07
1017.12	8.26
1017.543	8
1017.965	8.74
1018.388	8.13
1018.81	8.24
1019.233	8.5
1019.655	8.31
1020.078	8.4
1020.5	8.19
1020.922	8.52
1021.345	8.52
1021.767	8.32
1022.189	8.53
1022.612	8.19
1023.034	8.45
1023.456	8.83
1023.878	8.65
1024.301	8.5
1024.723	8.33
1025.145	8.44
1025.567	8.64
1025.989	8.65
1026.411	8.63
1026.833	8.79
1027.255	8.58
1027.677	8.66
1028.099	8.87
1028.52	8.96
1028.942	8.83
1029.364	8.66
1029.786	9.13
1030.208	8.93
1030.629	8.84
1031.051	9.06
1031.473	8.77
1031.894	8.84
1032.316	8.65
1032.738	8.64
1033.159	9.11
1033.581	9.32
1034.002	8.95
1034.424	9.37
1034.845	8.8
1035.267	8.99
1035.688	9.23
1036.109	8.79
1036.531	9.13
1036.952	9.34
1037.373	8.93
1037.794	9.57
1038.216	9.33
1038.637	9.72
1039.058	9.58
1039.479	9.36
1039.9	9.7
1040.321	9.48
1040.742	9.68
1041.163	9.49
1041.584	9.89
1042.005	9.8
1042.426	8.92
1042.847	9.83
1043.268	9.56
1043.689	9.1
1044.11	9.41
1044.53	9.72
1044.951	9.66
1045.372	9.97
1045.793	9.79
1046.213	9.8
1046.634	9.64
1047.055	9.88
1047.475	9.88
1047.896	9.67
1048.316	10.45
1048.737	9.71
1049.157	10.01
1049.578	10.21
1049.998	10.08
1050.419	9.68
1050.839	10.14
1051.259	9.87
1051.68	10.31
1052.1	10.15
1052.52	9.65
1052.94	10.51
1053.361	10.12
1053.781	10.29
1054.201	10.17
1054.621	10.42
1055.041	10.13
1055.461	10.36
1055.881	10.49
1056.301	10.25
1056.721	10.23
1057.141	10.65
1057.561	10.03
1057.981	9.89
1058.401	10.94
1058.82	10.41
1059.24	10.26
1059.66	10.23
1060.08	11.31
1060.499	10.25
1060.919	10.67
1061.339	10.62
1061.758	10.66
1062.178	11.64
1062.598	10.62
1063.017	10.24
1063.437	10.94
1063.856	10.51
1064.276	10.66
1064.695	10.86
1065.114	10.42
1065.534	10.2
1065.953	11.69
1066.372	10.68
1066.792	10.7
1067.211	11.29
1067.63	11.05
1068.049	11.37
1068.469	11.08
1068.888	10.24
1069.307	11.09
1069.726	12.28
1070.145	11.34
1070.564	11.01
1070.983	11.65
1071.402	12.12
1071.821	10.86
1072.24	12.03
1072.659	10.72
1073.078	11.56
1073.496	10.91
1073.915	12.22
1074.334	11.17
1074.753	10.96
1075.171	11.21
1075.59	10.79
1076.009	12.52
1076.427	11.8
1076.846	11.76
1077.265	11.61
1077.683	12.24
1078.102	11.44
1078.52	10.78
1078.939	11.28
1079.357	11.71
1079.776	12.16
1080.194	12.57
1080.612	13.8
1081.031	12.2
1081.449	12.11
1081.867	14.75
1082.285	12.6
1082.704	12.29
1083.122	12.31
1083.54	13.07
1083.958	12.58
1084.376	11.51
1084.794	11.42
1085.212	11.72
1085.63	13.9
1086.048	12.11
1086.466	12.25
1086.884	13.8
1087.302	13.34
1087.72	12.44
1088.138	13.42
1088.555	13.43
1088.973	11.37
1089.391	12.7
1089.809	12.31
1090.226	13.13
1090.644	13.99
1091.062	12.92
1091.479	13.67
1091.897	15.09
1092.314	14.88
1092.732	12.8
1093.15	12.25
1093.567	12.91
1093.984	13.88
1094.402	14.04
1094.819	13.87
1095.237	14.12
1095.654	15.11
1096.071	13.56
1096.488	14.41
1096.906	13.42
1097.323	12.67
1097.74	14.7
1098.157	13.9
1098.574	12.28
1098.991	13
1099.409	14.79
1099.826	14.74
1100.243	13.66
1100.66	13.89
1101.077	15.4
1101.494	17.07
1101.91	14.31
1102.327	13.2
1102.744	16.21
1103.161	16.78
1103.578	14.88
1103.994	13.34
1104.411	14.77
1104.828	12.96
1105.245	16.66
1105.661	17.43
1106.078	15.71
1106.494	15.28
1106.911	15.03
1107.328	13.89
1107.744	15.04
1108.161	16.5
1108.577	18.29
1108.993	15.7
1109.41	16.4
1109.826	16.2
1110.242	18.84
1110.659	18.12
1111.075	14.56
1111.491	15.22
1111.908	17.22
1112.324	18.3
1112.74	32.49
1113.156	16.23
1113.572	17.98
1113.988	18.28
1114.404	21.89
1114.82	13.21
1115.236	18.34
1115.652	17.87
1116.068	23.31
1116.484	19.34
1116.9	18.62
1117.316	25.6
1117.732	50
1118.147	-175
1118.563	32.35
1118.979	26.92
