Data from JCR0035_WhiteVentral_Reflection_00003.txt Node
Date: Fri Jul 31 15:50:12 ACST 2020
User: Stacey Dix
Spectrometer: MAYP113282
Scans to average: 1
Trigger mode: 0
Integration Time (sec): 1.000000E-1
Electric dark correction enabled: true
Boxcar width: 0
XAxis mode: Wavelengths
Number of Pixels in Spectrum: 2068
>>>>>Begin Spectral Data<<<<<
198.791	750
199.266	0
199.74	0
200.215	-900
200.69	39.42
201.164	35.93
201.639	19.74
202.114	10.86
202.588	31.47
203.063	24.4
203.537	2.96
204.012	35.89
204.486	18.14
204.961	25.12
205.435	9.8
205.909	18.9
206.384	-5.81
206.858	21.34
207.332	26.61
207.807	21.67
208.281	19.27
208.755	10.03
209.229	12.81
209.703	39.69
210.177	10.82
210.651	49.62
211.126	12.41
211.6	28.52
212.074	36.61
212.548	20.3
213.021	31.3
213.495	40.54
213.969	28.41
214.443	16.36
214.917	28.4
215.391	40.46
215.864	18.96
216.338	12.78
216.812	1.71
217.286	15.09
217.759	16.01
218.233	13.32
218.706	9.96
219.18	18
219.654	13.7
220.127	21.65
220.6	24.34
221.074	11.6
221.547	26.81
222.021	21.29
222.494	9.18
222.967	14.94
223.441	5.8
223.914	6.46
224.387	9.94
224.86	13.96
225.334	12.55
225.807	8.62
226.28	3.08
226.753	10.38
227.226	14.13
227.699	11.9
228.172	11.55
228.645	11.77
229.118	12.9
229.591	6.26
230.064	11.33
230.537	9.01
231.01	10.75
231.482	10.03
231.955	12.34
232.428	10.36
232.901	12.03
233.373	12.71
233.846	11.68
234.319	11.53
234.791	9.91
235.264	9.92
235.736	10.93
236.209	8.26
236.681	10.98
237.154	9.62
237.626	10.92
238.099	8.7
238.571	9.63
239.044	9.87
239.516	8.07
239.988	9.2
240.46	10.52
240.933	8
241.405	9.17
241.877	8.95
242.349	9.41
242.821	7.49
243.293	10.04
243.765	8.36
244.237	8.12
244.71	8.75
245.181	10.04
245.653	8.85
246.125	9.57
246.597	9.16
247.069	9.54
247.541	9.3
248.013	8.39
248.485	8.87
248.956	9.13
249.428	9.55
249.9	8.39
250.371	9.01
250.843	9.68
251.315	9.62
251.786	8.51
252.258	8.98
252.729	9.46
253.201	8.75
253.672	8.52
254.144	7.74
254.615	8.35
255.086	7.79
255.558	7.91
256.029	8.59
256.5	8.53
256.972	8.24
257.443	8.64
257.914	7.03
258.385	7.72
258.856	8.34
259.327	8.85
259.799	8.25
260.27	7.66
260.741	8.08
261.212	8.89
261.683	8.12
262.154	8.36
262.624	8.84
263.095	8.31
263.566	8.67
264.037	7.81
264.508	8.15
264.979	8.73
265.449	7.31
265.92	7.53
266.391	7.71
266.861	7.82
267.332	8.38
267.803	7.99
268.273	7.3
268.744	8.12
269.214	7.71
269.685	7.47
270.155	7.3
270.626	8.57
271.096	7.6
271.566	9.46
272.037	8.68
272.507	7.46
272.977	7.9
273.448	7.91
273.918	7.5
274.388	8.79
274.858	8.01
275.328	7.4
275.798	7.26
276.268	7.95
276.738	6.46
277.208	7.41
277.678	9.17
278.148	6.98
278.618	8.05
279.088	7.84
279.558	6.64
280.028	7.96
280.498	6.94
280.968	7.81
281.437	7.32
281.907	7.84
282.377	7.49
282.847	8.11
283.316	7.91
283.786	8.09
284.255	7.61
284.725	7.53
285.194	7.23
285.664	7.17
286.133	6.93
286.603	7.46
287.072	7.56
287.542	7.03
288.011	8.04
288.48	6.74
288.95	7.6
289.419	8.01
289.888	7.08
290.357	7.43
290.827	7.23
291.296	6.93
291.765	8.31
292.234	8.04
292.703	7.89
293.172	7.87
293.641	6.73
294.11	7.56
294.579	7.97
295.048	6.89
295.517	7.12
295.986	8.7
296.455	8
296.923	7.87
297.392	6.76
297.861	7.43
298.33	6.81
298.798	7.83
299.267	7.05
299.736	7.69
300.204	7.68
300.673	7.54
301.141	7.7
301.61	8.14
302.079	7.14
302.547	6.71
303.015	7.83
303.484	7.24
303.952	6.51
304.421	7.24
304.889	8.07
305.357	7.95
305.825	7.36
306.294	6.77
306.762	6.59
307.23	6.79
307.698	7.36
308.166	7.28
308.634	6.94
309.103	7.65
309.571	7.56
310.039	7.25
310.507	7.98
310.975	7.91
311.442	8.64
311.91	7.61
312.378	7.79
312.846	7.66
313.314	7.7
313.782	7.52
314.249	8.22
314.717	7.24
315.185	8.4
315.652	8.27
316.12	7.12
316.588	7.63
317.055	7.49
317.523	7.69
317.99	8.04
318.458	8.58
318.925	9.24
319.393	8.17
319.86	7.81
320.328	8.87
320.795	9.06
321.262	8.88
321.73	8.34
322.197	8.8
322.664	9.75
323.131	8.94
323.598	9.97
324.066	11.74
324.533	11.26
325	12.71
325.467	13.66
325.934	14.02
326.401	14.29
326.868	15.95
327.335	16.43
327.802	17.16
328.269	17.27
328.735	18.83
329.202	19.53
329.669	19.69
330.136	21.54
330.603	21.91
331.069	23.01
331.536	23.4
332.003	24.89
332.469	23.26
332.936	24.53
333.402	24.85
333.869	25.11
334.336	26.85
334.802	26.01
335.268	24.64
335.735	26.49
336.201	26.39
336.668	25.42
337.134	27.1
337.6	26.5
338.067	25.48
338.533	26.96
338.999	24.67
339.465	26.61
339.931	25.59
340.398	28.27
340.864	26.16
341.33	27.05
341.796	25.5
342.262	25.9
342.728	25.9
343.194	27.78
343.66	25.89
344.126	26.34
344.592	26.38
345.057	25.53
345.523	26.5
345.989	26.05
346.455	25.41
346.921	26.92
347.386	26.83
347.852	26.01
348.318	25.62
348.783	25.56
349.249	25.64
349.714	26.04
350.18	26.42
350.645	25.88
351.111	26.99
351.576	25.8
352.042	26.85
352.507	26.26
352.973	26.41
353.438	26.94
353.903	28.59
354.369	26.45
354.834	26.08
355.299	26.65
355.764	29.37
356.229	26.95
356.695	27.73
357.16	27.26
357.625	25.5
358.09	27.36
358.555	26.61
359.02	27.72
359.485	26.75
359.95	28.25
360.415	29.52
360.879	27.88
361.344	27.57
361.809	27.33
362.274	27
362.739	27.69
363.203	30.64
363.668	27.28
364.133	28.66
364.597	27.69
365.062	28.29
365.527	28.56
365.991	27.86
366.456	30.09
366.92	29.64
367.385	29.48
367.849	28.61
368.314	28.97
368.778	28.76
369.242	26.73
369.707	29.84
370.171	30.4
370.635	30.06
371.1	29.89
371.564	30.29
372.028	29.38
372.492	29.83
372.956	31.05
373.42	32.64
373.884	32.66
374.348	29.36
374.812	29.01
375.276	33.11
375.74	31.11
376.204	32.1
376.668	30.07
377.132	33.81
377.596	32.55
378.06	30.76
378.524	32.24
378.987	30.56
379.451	30.21
379.915	33.83
380.378	31.15
380.842	33.44
381.306	30.89
381.769	33.41
382.233	31.18
382.696	32.41
383.16	31.87
383.623	33.02
384.087	32.76
384.55	31.84
385.014	32.55
385.477	33.63
385.94	34.51
386.404	34.97
386.867	33.59
387.33	34.61
387.793	33.2
388.256	33.91
388.72	31.06
389.183	31.55
389.646	34.51
390.109	35.77
390.572	34.5
391.035	35.31
391.498	35.01
391.961	34.06
392.424	34.5
392.887	34.33
393.35	35.93
393.812	35.88
394.275	34.88
394.738	35.39
395.201	35.41
395.664	35
396.126	35.08
396.589	35.26
397.052	34.78
397.514	34.59
397.977	36.85
398.439	36.33
398.902	34.1
399.364	35.79
399.827	36.66
400.289	35.66
400.752	34.33
401.214	36.41
401.676	37.03
402.139	34.78
402.601	36.99
403.063	35.67
403.525	37.27
403.988	35.16
404.45	33.93
404.912	37
405.374	36.65
405.836	36.78
406.298	35.65
406.76	35.3
407.222	35.67
407.684	37.22
408.146	34.09
408.608	35.71
409.07	35.94
409.532	35.33
409.994	35.08
410.456	35.15
410.917	35.99
411.379	35.22
411.841	36.36
412.303	35.17
412.764	37.86
413.226	35.83
413.687	36.26
414.149	37.33
414.611	35.23
415.072	34.91
415.534	36.54
415.995	34.34
416.457	36.01
416.918	36.89
417.379	37.28
417.841	36.73
418.302	36.4
418.763	36.55
419.225	35.88
419.686	36.16
420.147	35.92
420.608	36.87
421.069	35.7
421.53	36.99
421.991	37.91
422.453	35.99
422.914	36.75
423.375	38.98
423.836	35.08
424.297	36.71
424.757	38.53
425.218	35.45
425.679	36.73
426.14	37.7
426.601	38.12
427.062	38.42
427.522	38.31
427.983	38.38
428.444	39.14
428.904	40.47
429.365	37.52
429.826	34.6
430.286	39.54
430.747	38.62
431.207	39.74
431.668	38.05
432.128	38.23
432.589	40.81
433.049	36.8
433.509	39.25
433.97	37.66
434.43	38.26
434.89	37.27
435.351	37.95
435.811	36.64
436.271	37.33
436.731	38.2
437.191	37.52
437.651	37.98
438.112	40.18
438.572	37.75
439.032	38.56
439.492	40.54
439.952	37.59
440.412	39.83
440.871	40.16
441.331	38.03
441.791	38.64
442.251	41.9
442.711	37.52
443.171	40.66
443.63	43.48
444.09	38.06
444.55	38.44
445.009	40.61
445.469	41
445.929	39.48
446.388	40.41
446.848	39.89
447.307	40.11
447.767	41.01
448.226	40.97
448.686	42.3
449.145	39.12
449.604	39.74
450.064	39.77
450.523	38
450.982	39.66
451.442	40.83
451.901	40.9
452.36	42.76
452.819	39.69
453.278	38.49
453.737	40.91
454.197	38.83
454.656	43.11
455.115	38.73
455.574	39.28
456.033	36.82
456.492	40.13
456.95	42.29
457.409	39.19
457.868	41.16
458.327	41.32
458.786	39.14
459.245	42.46
459.703	38.81
460.162	39.75
460.621	40.84
461.079	41.43
461.538	39.8
461.997	41.11
462.455	40.24
462.914	41.02
463.372	42.29
463.831	39.71
464.289	41.52
464.748	38.14
465.206	39.88
465.664	43.56
466.123	37.29
466.581	40.23
467.039	40.23
467.497	41.25
467.956	40.17
468.414	42.04
468.872	42.33
469.33	40.01
469.788	44.5
470.246	43.99
470.704	39.77
471.162	42.18
471.62	41.63
472.078	40.45
472.536	37.28
472.994	38.33
473.452	38.38
473.91	41.39
474.368	38.91
474.826	40.34
475.283	41.36
475.741	41.42
476.199	40.07
476.656	43.2
477.114	41.59
477.572	38.63
478.029	40.58
478.487	43.35
478.944	40.14
479.402	40.99
479.859	41.29
480.317	38.91
480.774	41.72
481.232	39.83
481.689	40.96
482.146	42.1
482.604	39.1
483.061	40.48
483.518	41.03
483.975	37.29
484.433	40.89
484.89	40.45
485.347	41.66
485.804	38.73
486.261	41.15
486.718	37.97
487.175	39.81
487.632	44.41
488.089	42.83
488.546	42.46
489.003	40.61
489.46	40.73
489.917	37.15
490.373	38.38
490.83	40.32
491.287	41.99
491.744	42.1
492.2	40.57
492.657	41.88
493.114	40.07
493.57	40.96
494.027	39.45
494.484	44.5
494.94	38.5
495.397	41.16
495.853	41.4
496.31	41.34
496.766	41.23
497.222	40.66
497.679	39.98
498.135	40.85
498.591	39.78
499.048	39.16
499.504	40.01
499.96	38.8
500.416	38.21
500.872	44.21
501.329	43.01
501.785	41.94
502.241	39.2
502.697	40.87
503.153	40.34
503.609	40.91
504.065	41.65
504.521	42.09
504.977	40.65
505.432	39.82
505.888	42.07
506.344	40.45
506.8	41.02
507.256	40.99
507.711	39.3
508.167	40.14
508.623	40.63
509.078	39.88
509.534	41.01
509.99	39.13
510.445	40.75
510.901	40.49
511.356	41.44
511.812	42.93
512.267	41.68
512.722	39.77
513.178	40.86
513.633	42.45
514.089	42.97
514.544	40.01
514.999	39.22
515.454	40.57
515.91	43.09
516.365	41.47
516.82	39.52
517.275	41.16
517.73	43.51
518.185	42.07
518.64	38.64
519.095	45.7
519.55	39.95
520.005	41.34
520.46	40.33
520.915	42.54
521.37	40.01
521.825	42.64
522.28	42.77
522.734	39.15
523.189	40.8
523.644	40.55
524.099	42.67
524.553	41.31
525.008	40.39
525.462	43.63
525.917	40.22
526.372	40.2
526.826	41.37
527.281	44.22
527.735	42.53
528.19	42.64
528.644	42.51
529.098	42.57
529.553	40.7
530.007	43.85
530.461	44.52
530.916	43.35
531.37	42.53
531.824	41.58
532.278	45.21
532.732	43.3
533.186	44.36
533.641	40.87
534.095	41.97
534.549	42.33
535.003	43.35
535.457	43.47
535.911	41.2
536.365	42.3
536.818	42.51
537.272	41.53
537.726	41.08
538.18	41.19
538.634	44.58
539.087	43.39
539.541	42.64
539.995	42.07
540.449	45.3
540.902	44.62
541.356	38.69
541.809	45.45
542.263	41.76
542.716	45.18
543.17	44.88
543.623	43.71
544.077	41.45
544.53	41.2
544.984	45.04
545.437	41.03
545.89	45.23
546.344	42.56
546.797	45.02
547.25	41.04
547.703	43.22
548.157	41.56
548.61	44.3
549.063	43.68
549.516	43.51
549.969	44.26
550.422	42.05
550.875	40.87
551.328	42.55
551.781	44.53
552.234	43.95
552.687	42.95
553.14	42.21
553.592	44.78
554.045	41.87
554.498	44.16
554.951	47.54
555.404	44.94
555.856	46.21
556.309	43.29
556.762	43.42
557.214	47.65
557.667	44.12
558.119	43.04
558.572	46.67
559.024	45.26
559.477	42.83
559.929	42.75
560.382	44.65
560.834	46.51
561.286	42.55
561.739	46.1
562.191	45.98
562.643	44.63
563.095	45.31
563.548	42.15
564	45.7
564.452	45.31
564.904	45.44
565.356	45.32
565.808	47.22
566.26	46.27
566.712	44.65
567.164	45.08
567.616	44.91
568.068	47.16
568.52	44.44
568.972	45.9
569.424	45.24
569.876	45.78
570.327	43.72
570.779	44.81
571.231	43.63
571.682	45.58
572.134	45.52
572.586	44.35
573.037	44.49
573.489	46.89
573.941	45.62
574.392	45.29
574.844	44.34
575.295	46.3
575.746	45.22
576.198	45.26
576.649	46.86
577.101	43.57
577.552	43.5
578.003	45.18
578.454	47.51
578.906	44.25
579.357	44.7
579.808	45.16
580.259	45.21
580.71	45.43
581.161	46
581.612	44.98
582.064	45.44
582.515	43.68
582.965	46.1
583.416	43.41
583.867	45.17
584.318	44.16
584.769	45.17
585.22	44.96
585.671	44.32
586.122	45.7
586.572	45.95
587.023	46.48
587.474	45.48
587.924	45.68
588.375	44.93
588.826	45.56
589.276	42.58
589.727	44.57
590.177	46.03
590.628	43.55
591.078	46.88
591.529	42.92
591.979	43.86
592.429	45.09
592.88	46.01
593.33	45.97
593.78	46.65
594.231	45.54
594.681	45.03
595.131	44.47
595.581	45.28
596.031	43.27
596.481	46.35
596.932	45.8
597.382	45.25
597.832	47.34
598.282	46.49
598.732	45.91
599.182	45.88
599.632	43.73
600.081	46.65
600.531	45.72
600.981	44.25
601.431	44.55
601.881	44.79
602.33	45.19
602.78	44.42
603.23	45.43
603.679	44.71
604.129	45.35
604.579	45.6
605.028	47.25
605.478	44.66
605.927	46.04
606.377	43.91
606.826	43.89
607.276	44.08
607.725	45.17
608.175	45.56
608.624	44.9
609.073	44.85
609.522	45.06
609.972	45.1
610.421	44.33
610.87	45.91
611.319	45.33
611.768	44.5
612.218	44.95
612.667	44.83
613.116	43.93
613.565	45.36
614.014	44.05
614.463	44.89
614.912	47.1
615.361	45.33
615.81	45.06
616.258	46.71
616.707	46.07
617.156	45.47
617.605	46.16
618.054	44.27
618.502	44.13
618.951	44.08
619.4	44.85
619.848	44.13
620.297	43.51
620.745	45.05
621.194	44.64
621.642	44.7
622.091	43.63
622.539	45.48
622.988	45.34
623.436	44.99
623.885	45.11
624.333	46.1
624.781	44.93
625.23	46.29
625.678	46.18
626.126	44.28
626.574	45.39
627.022	44.98
627.471	44.14
627.919	45.09
628.367	46.27
628.815	43.65
629.263	45.31
629.711	44.14
630.159	43.45
630.607	46.62
631.055	45.33
631.503	43.49
631.95	44.06
632.398	42.92
632.846	45.77
633.294	46.06
633.742	45.89
634.189	44.25
634.637	43.94
635.085	44.98
635.532	44.42
635.98	46.11
636.427	44.65
636.875	45.46
637.323	43.8
637.77	44.52
638.217	45.18
638.665	45.48
639.112	44.7
639.56	44.73
640.007	45.62
640.454	45.45
640.902	45.1
641.349	44.94
641.796	44.94
642.243	45.55
642.69	45.33
643.138	45.04
643.585	43.78
644.032	44.25
644.479	45.46
644.926	45.18
645.373	45.78
645.82	44.22
646.267	44.13
646.714	44.36
647.161	45.11
647.607	44.62
648.054	44.97
648.501	45.35
648.948	44.44
649.395	45.17
649.841	44.36
650.288	43.59
650.735	44.97
651.181	45.55
651.628	45.62
652.075	46.6
652.521	44.34
652.968	44.77
653.414	44.25
653.861	45.01
654.307	45.47
654.753	43.96
655.2	44.9
655.646	44.43
656.092	45.38
656.539	44.53
656.985	45.08
657.431	44.57
657.877	45.1
658.324	44.5
658.77	45.13
659.216	45.01
659.662	43.3
660.108	44.49
660.554	42.82
661	43.78
661.446	45.62
661.892	44.62
662.338	44.1
662.784	46.72
663.23	43.86
663.675	44.01
664.121	44.64
664.567	45.15
665.013	45.38
665.458	44.58
665.904	44.8
666.35	45.72
666.795	44.55
667.241	44.34
667.687	44.59
668.132	43.97
668.578	44.89
669.023	43.43
669.469	44.48
669.914	44.94
670.359	45.62
670.805	44.29
671.25	45
671.695	44.13
672.141	44.7
672.586	44.46
673.031	44.3
673.476	44.13
673.922	43.73
674.367	44.12
674.812	43.58
675.257	44.61
675.702	44.99
676.147	43.01
676.592	43.68
677.037	43.09
677.482	44.5
677.927	45.19
678.372	45.88
678.817	43.87
679.261	44.47
679.706	45.25
680.151	44.01
680.596	44.52
681.04	45.11
681.485	44.85
681.93	44.46
682.374	45.64
682.819	43.46
683.264	44.16
683.708	44.91
684.153	44.05
684.597	44.11
685.042	45.3
685.486	44.1
685.93	44.55
686.375	44.86
686.819	44.84
687.263	44.39
687.708	43.71
688.152	44.02
688.596	43.68
689.04	45.37
689.485	44.99
689.929	46.01
690.373	43.87
690.817	46.53
691.261	44.85
691.705	42.82
692.149	44.71
692.593	44.68
693.037	43.7
693.481	45.22
693.925	45.04
694.369	44.28
694.812	43.59
695.256	43.9
695.7	44.17
696.144	43.87
696.587	44.54
697.031	45.03
697.475	44.11
697.918	43.96
698.362	44.21
698.806	43.89
699.249	43.73
699.693	43.95
700.136	43.4
700.58	44.19
701.023	43.95
701.466	44.06
701.91	44.22
702.353	45.24
702.796	44.01
703.24	44.51
703.683	43.22
704.126	45.37
704.569	43.5
705.013	43.1
705.456	43.91
705.899	43.39
706.342	45.21
706.785	44.12
707.228	44.21
707.671	44.46
708.114	43.64
708.557	43.75
709	44.09
709.443	44.22
709.886	44.45
710.328	43.77
710.771	43.91
711.214	45.02
711.657	43.89
712.099	44.18
712.542	44.01
712.985	44.71
713.427	42.99
713.87	43.58
714.313	44.6
714.755	44.14
715.198	43.91
715.64	43.98
716.083	43.46
716.525	44.04
716.967	42.91
717.41	45.2
717.852	44.63
718.295	44.33
718.737	44.59
719.179	43.67
719.621	43.86
720.063	44.55
720.506	44.84
720.948	43.93
721.39	44.16
721.832	42.85
722.274	44.27
722.716	44.28
723.158	44.11
723.6	45.13
724.042	44.47
724.484	44.27
724.926	44.13
725.368	43.91
725.81	43.02
726.251	43.77
726.693	43.69
727.135	44.89
727.577	44.09
728.018	43.66
728.46	43.31
728.902	44.55
729.343	42.98
729.785	43.32
730.226	43.79
730.668	43.5
731.109	42.97
731.551	43.57
731.992	41.81
732.434	43.56
732.875	43.82
733.316	44.6
733.758	43.15
734.199	42.93
734.64	43.6
735.081	43.93
735.523	43.19
735.964	43.68
736.405	43.67
736.846	43.71
737.287	43.34
737.728	42.83
738.169	43.77
738.61	43.3
739.051	45.19
739.492	43.5
739.933	43.56
740.374	43.98
740.815	43.67
741.256	44.47
741.696	43.69
742.137	42.58
742.578	43.6
743.019	43.34
743.459	41.88
743.9	43.12
744.341	44.03
744.781	43.88
745.222	43.36
745.662	43.48
746.103	43.6
746.543	43.61
746.984	45.33
747.424	43.99
747.865	44.06
748.305	43.41
748.745	43.91
749.186	43.79
749.626	42.65
750.066	43.25
750.506	43.19
750.947	42.99
751.387	42.89
751.827	44.4
752.267	44.05
752.707	44.65
753.147	43.45
753.587	43.89
754.027	43.61
754.467	44.37
754.907	42.71
755.347	43.39
755.787	43.44
756.227	44.49
756.667	43.11
757.107	44.03
757.546	43.25
757.986	43.41
758.426	44.31
758.865	44.02
759.305	43.1
759.745	43.83
760.184	43.79
760.624	43.24
761.063	43.95
761.503	43.64
761.943	42.81
762.382	44.25
762.821	42.35
763.261	43.39
763.7	43.78
764.14	44.38
764.579	43.35
765.018	41.84
765.457	43.05
765.897	43.3
766.336	43.26
766.775	43.16
767.214	43.32
767.653	43.23
768.092	43.91
768.531	41.64
768.97	43.24
769.409	42.29
769.848	43.35
770.287	44.32
770.726	43.78
771.165	43.89
771.604	42.53
772.043	44.06
772.482	42.37
772.92	43.64
773.359	43.18
773.798	43.26
774.237	42.66
774.675	42.3
775.114	43.36
775.553	42.98
775.991	42.93
776.43	42.99
776.868	44.24
777.307	42.75
777.745	43.9
778.184	42.72
778.622	43.45
779.06	42.66
779.499	43.93
779.937	42.79
780.375	42.86
780.814	43.47
781.252	43.53
781.69	43.43
782.128	42.54
782.566	42.64
783.004	42.92
783.443	43.79
783.881	43.01
784.319	43.51
784.757	43.03
785.195	43.42
785.633	43.05
786.071	42.66
786.508	42.78
786.946	43.2
787.384	44.14
787.822	42.4
788.26	43.51
788.697	42.52
789.135	43.8
789.573	42.86
790.011	42.68
790.448	42.68
790.886	42.74
791.323	43.88
791.761	43.12
792.198	42.37
792.636	43.95
793.073	42.42
793.511	42.76
793.948	43.28
794.386	42.84
794.823	43.15
795.26	43.23
795.698	42.22
796.135	43.27
796.572	42.37
797.009	41.99
797.446	42.86
797.884	43.09
798.321	42.68
798.758	42.13
799.195	43.1
799.632	43.09
800.069	42.25
800.506	43.18
800.943	42.41
801.38	43.31
801.817	42.16
802.254	42.03
802.69	42.42
803.127	41.74
803.564	42.79
804.001	42.09
804.438	42.98
804.874	43.64
805.311	42.89
805.748	42.58
806.184	43.79
806.621	42.42
807.057	42.75
807.494	42.41
807.93	43.62
808.367	42.92
808.803	42.48
809.24	42.96
809.676	42.83
810.112	42.71
810.549	42.57
810.985	42.34
811.421	42.54
811.857	42.68
812.294	42.98
812.73	42.5
813.166	42.62
813.602	43.54
814.038	43.24
814.474	42.21
814.91	42.35
815.346	42.96
815.782	42.38
816.218	42.85
816.654	43.19
817.09	42.59
817.526	42.91
817.962	42.89
818.398	42.57
818.833	42.45
819.269	42.67
819.705	43.36
820.141	42.12
820.576	42.86
821.012	43.33
821.447	42.49
821.883	42.74
822.319	42.37
822.754	42.33
823.19	42.35
823.625	41.98
824.061	41.97
824.496	41.94
824.931	42.15
825.367	41.51
825.802	43
826.237	42.36
826.673	42.49
827.108	41.98
827.543	43.12
827.978	42.38
828.413	41.93
828.849	42.87
829.284	42.74
829.719	42.46
830.154	42.48
830.589	41.98
831.024	43.32
831.459	42.22
831.894	41.93
832.329	42.71
832.763	42.87
833.198	43.05
833.633	42.37
834.068	43.13
834.503	42.98
834.937	42.74
835.372	42.22
835.807	42.27
836.241	42.9
836.676	42.81
837.111	42.64
837.545	42.34
837.98	42.24
838.414	42.22
838.849	42.8
839.283	42.8
839.717	42.94
840.152	42.03
840.586	42.69
841.021	43.29
841.455	42.75
841.889	42
842.323	41.71
842.758	42.34
843.192	41.9
843.626	42.53
844.06	42.31
844.494	42.09
844.928	42.77
845.362	42.23
845.796	41.96
846.23	42.05
846.664	41.76
847.098	42.22
847.532	42.06
847.966	42.86
848.4	42.4
848.834	42.45
849.267	42.4
849.701	41.6
850.135	42.6
850.569	41.99
851.002	42.19
851.436	42.83
851.87	42.34
852.303	42.08
852.737	42.5
853.17	42.42
853.604	41.75
854.037	42.5
854.471	41.91
854.904	42.2
855.337	42.53
855.771	41.84
856.204	41.97
856.637	41.72
857.071	41.75
857.504	41.9
857.937	42.21
858.37	42.01
858.804	42.29
859.237	41.95
859.67	42.07
860.103	42
860.536	41.2
860.969	41.98
861.402	41.89
861.835	42.78
862.268	43.03
862.701	42.49
863.134	42.42
863.566	41.45
863.999	42.06
864.432	42.14
864.865	42.06
865.298	41.8
865.73	42.08
866.163	41.5
866.596	42.02
867.028	41.4
867.461	41.71
867.893	41.2
868.326	41.78
868.758	41.7
869.191	42.14
869.623	41.93
870.056	41.87
870.488	41.45
870.92	41.92
871.353	42.24
871.785	41.38
872.217	42.04
872.65	41.56
873.082	42.05
873.514	41.29
873.946	42.16
874.378	42.32
874.81	41.86
875.243	41.47
875.675	41.96
876.107	42.43
876.539	41.55
876.971	41.72
877.403	41.31
877.834	41.87
878.266	41.14
878.698	42.24
879.13	42.18
879.562	41.42
879.994	41.45
880.425	42.06
880.857	42.35
881.289	41.29
881.72	42.2
882.152	41.51
882.584	41.82
883.015	41.24
883.447	41.2
883.878	41.81
884.31	42.04
884.741	41.85
885.173	41.99
885.604	41.9
886.035	41.66
886.467	41.75
886.898	41.57
887.329	42.15
887.76	41.79
888.192	41.17
888.623	41.75
889.054	41.82
889.485	41.86
889.916	41.68
890.347	40.96
890.778	41.98
891.209	41.45
891.64	41.56
892.071	41.35
892.502	41.75
892.933	40.6
893.364	41.22
893.795	41.29
894.226	41.18
894.657	41.56
895.087	42.19
895.518	41.38
895.949	42.25
896.38	41.13
896.81	41.27
897.241	41.83
897.671	41.61
898.102	41.54
898.533	41.61
898.963	41.93
899.394	42.11
899.824	41.4
900.254	41.38
900.685	41.6
901.115	40.79
901.546	41.44
901.976	42.01
902.406	41.79
902.836	41.25
903.267	41.49
903.697	41.67
904.127	41.34
904.557	41.22
904.987	41.32
905.417	41.53
905.847	42.33
906.277	41.9
906.707	41.14
907.137	41
907.567	41.25
907.997	41.39
908.427	40.89
908.857	41.54
909.287	40.59
909.717	41.09
910.146	41.5
910.576	40.5
911.006	41.02
911.436	41.46
911.865	41.04
912.295	41.14
912.724	41.2
913.154	41.28
913.584	40.81
914.013	40.82
914.443	40.45
914.872	40.59
915.302	40.86
915.731	41.15
916.16	41
916.59	41
917.019	40.74
917.448	41.07
917.878	41.44
918.307	40.66
918.736	40.68
919.165	40.58
919.594	40.29
920.023	40.89
920.452	40.97
920.882	40.92
921.311	40.5
921.74	40.62
922.169	40.79
922.597	40.92
923.026	41
923.455	41.29
923.884	40.86
924.313	41.18
924.742	40.75
925.171	40.78
925.599	40.56
926.028	40.88
926.457	40.8
926.885	39.98
927.314	40.78
927.743	40.68
928.171	39.95
928.6	40.9
929.028	40.19
929.457	41.08
929.885	40.96
930.314	40.35
930.742	40.57
931.17	40.09
931.599	41.06
932.027	40.99
932.455	40.25
932.884	40.7
933.312	40.73
933.74	41
934.168	40.52
934.596	40.41
935.025	40.96
935.453	40.93
935.881	40.78
936.309	40.67
936.737	40.2
937.165	40.83
937.593	40.06
938.021	40.68
938.449	40.59
938.876	40.63
939.304	40.51
939.732	40.21
940.16	40.03
940.588	40.86
941.015	40.57
941.443	41.14
941.871	40.47
942.298	40.31
942.726	40.98
943.154	40.16
943.581	41.07
944.009	40.59
944.436	41.22
944.864	40.52
945.291	40.08
945.718	39.71
946.146	41.98
946.573	39.25
947.001	40
947.428	40.08
947.855	40.52
948.282	40.72
948.71	40.25
949.137	40.84
949.564	40.59
949.991	39.52
950.418	40.21
950.845	40.92
951.272	41.05
951.699	40.25
952.126	40.28
952.553	40.23
952.98	40.11
953.407	40.25
953.834	39.66
954.261	40.19
954.688	39.83
955.114	40.41
955.541	40.7
955.968	40.63
956.395	41.04
956.821	39.3
957.248	39.48
957.674	40.28
958.101	40.43
958.528	40.3
958.954	39.96
959.381	39.82
959.807	39.62
960.234	39.9
960.66	39.11
961.086	40.43
961.513	40.08
961.939	40.34
962.365	39.85
962.792	39.46
963.218	39.89
963.644	40.2
964.07	39.66
964.496	39.86
964.923	39.71
965.349	39.8
965.775	40.47
966.201	39.73
966.627	39.98
967.053	40.38
967.479	40.1
967.905	39.79
968.331	40.01
968.756	39.55
969.182	39.76
969.608	39.53
970.034	39.87
970.46	39.28
970.885	39.79
971.311	40.04
971.737	39.29
972.162	39.81
972.588	39.36
973.014	39.57
973.439	39.62
973.865	39.92
974.29	39.58
974.716	39.71
975.141	39.32
975.567	39.38
975.992	40.44
976.417	39.62
976.843	39.33
977.268	39.53
977.693	39.05
978.119	39.8
978.544	40.1
978.969	39.55
979.394	39.54
979.819	39.58
980.244	39.24
980.669	39.92
981.095	39.46
981.52	40.15
981.945	39.18
982.369	39.62
982.794	39.3
983.219	39.37
983.644	39.77
984.069	39.46
984.494	39.58
984.919	39.8
985.343	39.49
985.768	39.29
986.193	39.56
986.618	39.84
987.042	39.09
987.467	39.48
987.891	39.21
988.316	39.39
988.741	39.69
989.165	39.19
989.59	39.16
990.014	39.28
990.438	39.02
990.863	38.82
991.287	39.02
991.712	39.5
992.136	39.75
992.56	39.66
992.984	39.71
993.409	39.07
993.833	39.09
994.257	38.73
994.681	39.47
995.105	39.46
995.529	39.42
995.953	39.11
996.377	39.32
996.801	38.91
997.225	39.17
997.649	39.18
998.073	39.54
998.497	39.08
998.921	39.31
999.345	39.56
999.769	39.17
1000.192	38.82
1000.616	39.25
1001.04	39.71
1001.464	39.5
1001.887	39.06
1002.311	39.62
1002.734	38.96
1003.158	38.96
1003.582	38.61
1004.005	39.42
1004.429	39.32
1004.852	38.98
1005.275	39.28
1005.699	39.01
1006.122	38.61
1006.546	39.42
1006.969	39.35
1007.392	39.51
1007.815	38.88
1008.239	39.18
1008.662	39.27
1009.085	38.48
1009.508	38.82
1009.931	39.19
1010.354	39.38
1010.778	38.91
1011.201	39.36
1011.624	39.05
1012.047	39.35
1012.469	39.05
1012.892	38.88
1013.315	38.97
1013.738	38.99
1014.161	38.71
1014.584	39.11
1015.007	39.5
1015.429	38.99
1015.852	38.97
1016.275	38.75
1016.697	38.85
1017.12	38.75
1017.543	39.24
1017.965	39.44
1018.388	38.33
1018.81	38.53
1019.233	38.33
1019.655	38.75
1020.078	38.55
1020.5	38.67
1020.922	39.1
1021.345	38.69
1021.767	38.63
1022.189	38.99
1022.612	38.56
1023.034	39.08
1023.456	38.83
1023.878	39.13
1024.301	39.21
1024.723	38.97
1025.145	38.63
1025.567	38.93
1025.989	38.87
1026.411	38.74
1026.833	38.55
1027.255	39.32
1027.677	39.37
1028.099	38.54
1028.52	38.41
1028.942	38.35
1029.364	38.3
1029.786	39.44
1030.208	38.92
1030.629	39.14
1031.051	38.71
1031.473	38.63
1031.894	38.2
1032.316	38.55
1032.738	38.56
1033.159	38.89
1033.581	38.82
1034.002	38.07
1034.424	38.7
1034.845	38.25
1035.267	39.16
1035.688	38.86
1036.109	38.87
1036.531	38.3
1036.952	38.76
1037.373	38.81
1037.794	38.18
1038.216	38.4
1038.637	38.69
1039.058	38.46
1039.479	38.96
1039.9	38.64
1040.321	38.83
1040.742	38.25
1041.163	38.81
1041.584	38.41
1042.005	38.28
1042.426	39.52
1042.847	38.65
1043.268	38.37
1043.689	38.92
1044.11	38.63
1044.53	38.76
1044.951	38.65
1045.372	38.44
1045.793	38.04
1046.213	38.57
1046.634	38.62
1047.055	38.79
1047.475	38.41
1047.896	38.47
1048.316	38.15
1048.737	38.74
1049.157	38.42
1049.578	38.57
1049.998	38.77
1050.419	38.24
1050.839	38.77
1051.259	37.69
1051.68	37.94
1052.1	38.1
1052.52	38.21
1052.94	38.09
1053.361	38.18
1053.781	38.05
1054.201	38.13
1054.621	38.84
1055.041	37.82
1055.461	37.76
1055.881	38.57
1056.301	38.88
1056.721	38.81
1057.141	38.58
1057.561	39.08
1057.981	38.42
1058.401	38.74
1058.82	38.46
1059.24	38.04
1059.66	39.36
1060.08	38.67
1060.499	39.71
1060.919	38.45
1061.339	38.42
1061.758	37.98
1062.178	38.43
1062.598	37.88
1063.017	37.91
1063.437	38.23
1063.856	38.08
1064.276	37.62
1064.695	37.75
1065.114	38.36
1065.534	38.75
1065.953	37.4
1066.372	37.77
1066.792	38.34
1067.211	37.92
1067.63	37.53
1068.049	38.18
1068.469	37.77
1068.888	38.06
1069.307	38.14
1069.726	38.97
1070.145	38.38
1070.564	37.82
1070.983	38.66
1071.402	38.38
1071.821	36.54
1072.24	38.97
1072.659	37.65
1073.078	37.4
1073.496	36.93
1073.915	37.67
1074.334	38.7
1074.753	38.21
1075.171	37.41
1075.59	38.06
1076.009	38.37
1076.427	37.72
1076.846	38.98
1077.265	37.19
1077.683	36.86
1078.102	37.13
1078.52	37.84
1078.939	37
1079.357	36.5
1079.776	36.92
1080.194	38.74
1080.612	38.5
1081.031	35.83
1081.449	37.04
1081.867	36.94
1082.285	37.86
1082.704	36.92
1083.122	38.85
1083.54	38.33
1083.958	37.99
1084.376	37.56
1084.794	38.1
1085.212	37.28
1085.63	37.28
1086.048	38.02
1086.466	37.03
1086.884	37.1
1087.302	37.8
1087.72	38.06
1088.138	36.56
1088.555	39.14
1088.973	37.5
1089.391	37.92
1089.809	38.66
1090.226	36.5
1090.644	36.61
1091.062	37.9
1091.479	36.15
1091.897	35.8
1092.314	36.7
1092.732	36.47
1093.15	34.67
1093.567	37.19
1093.984	38.77
1094.402	37.05
1094.819	36.62
1095.237	37.68
1095.654	35.48
1096.071	36.52
1096.488	37.48
1096.906	38
1097.323	39.49
1097.74	35.39
1098.157	34.92
1098.574	38.8
1098.991	34.7
1099.409	36.94
1099.826	36.01
1100.243	34.79
1100.66	37.4
1101.077	36.19
1101.494	36.53
1101.91	35.86
1102.327	36.77
1102.744	35.24
1103.161	37.83
1103.578	36.92
1103.994	34.11
1104.411	38.1
1104.828	35.02
1105.245	37.53
1105.661	35.66
1106.078	32.07
1106.494	35.99
1106.911	36.56
1107.328	35.53
1107.744	35.88
1108.161	35.13
1108.577	35.22
1108.993	33.61
1109.41	36.86
1109.826	36.62
1110.242	36.27
1110.659	36.77
1111.075	37.18
1111.491	34.25
1111.908	33.42
1112.324	34.25
1112.74	52.48
1113.156	34.51
1113.572	34.07
1113.988	36.53
1114.404	36.5
1114.82	36.4
1115.236	33.03
1115.652	34.09
1116.068	33.78
1116.484	30.8
1116.9	37.53
1117.316	33.36
1117.732	58.06
1118.147	115.38
1118.563	128.57
1118.979	75
