Data from JCR0013_Black1_Reflection_16-26-56-876.txt Node
Date: Fri Jul 31 16:26:56 ACST 2020
User: Stacey Dix
Spectrometer: MAYP113282
Scans to average: 1
Trigger mode: 0
Integration Time (sec): 1.000000E-1
Electric dark correction enabled: true
Boxcar width: 0
XAxis mode: Wavelengths
Number of Pixels in Spectrum: 2068
>>>>>Begin Spectral Data<<<<<
198.791	687.5
199.266	-25
199.74	-70
200.215	-475
200.69	-46.35
201.164	-7.49
201.639	-31.91
202.114	9.28
202.588	12.24
203.063	4.07
203.537	-6.16
204.012	-4.55
204.486	-14.19
204.961	-15.58
205.435	-5.1
205.909	12.8
206.384	-62.26
206.858	12.34
207.332	11.9
207.807	-20.72
208.281	-2.98
208.755	18.9
209.229	-6.58
209.703	-0.19
210.177	-15.72
210.651	11.09
211.126	-8.45
211.6	10.08
212.074	-26.18
212.548	-4.7
213.021	-19.78
213.495	4.9
213.969	-1.81
214.443	-20.91
214.917	14.05
215.391	17.32
215.864	-0.11
216.338	6.61
216.812	-7
217.286	-8.55
217.759	5.45
218.233	-11.33
218.706	2.83
219.18	13.7
219.654	-12.38
220.127	10.75
220.6	-1.79
221.074	-0.62
221.547	14.08
222.021	9.6
222.494	2.02
222.967	3.16
223.441	0.71
223.914	-0.05
224.387	-1.59
224.86	5.39
225.334	10.05
225.807	12.74
226.28	-4.81
226.753	8.61
227.226	9.38
227.699	6.58
228.172	8.47
228.645	5.26
229.118	10.29
229.591	7.8
230.064	9.26
230.537	5.08
231.01	3.9
231.482	6.5
231.955	7.31
232.428	6.77
232.901	6
233.373	6.12
233.846	7.84
234.319	6.43
234.791	6.44
235.264	7.56
235.736	6.42
236.209	6.89
236.681	6.39
237.154	5.31
237.626	6.54
238.099	4.41
238.571	7.02
239.044	6.28
239.516	6.09
239.988	7.5
240.46	6.2
240.933	6.14
241.405	6.7
241.877	6.67
242.349	7.95
242.821	6.01
243.293	6.44
243.765	4.65
244.237	6.35
244.71	6.51
245.181	6.76
245.653	5.83
246.125	5.14
246.597	6.3
247.069	6.12
247.541	5.84
248.013	6.64
248.485	7.52
248.956	4.59
249.428	5.67
249.9	7.29
250.371	4.99
250.843	7.47
251.315	5.55
251.786	5.48
252.258	5.77
252.729	6.06
253.201	6
253.672	6.26
254.144	5.94
254.615	5.26
255.086	5.29
255.558	6.09
256.029	6.22
256.5	5.48
256.972	5.45
257.443	5.13
257.914	4.32
258.385	5.92
258.856	5.55
259.327	5.16
259.799	6.44
260.27	5.41
260.741	6.13
261.212	6.5
261.683	5.99
262.154	5.58
262.624	6.8
263.095	4.96
263.566	5.89
264.037	5.09
264.508	6.37
264.979	5.6
265.449	5.58
265.92	5.33
266.391	4.3
266.861	4.74
267.332	5.76
267.803	4.66
268.273	5.39
268.744	5.26
269.214	5.73
269.685	5.98
270.155	4.75
270.626	5.89
271.096	5.97
271.566	5.83
272.037	5.34
272.507	5.52
272.977	5.79
273.448	5.39
273.918	5.02
274.388	5.15
274.858	5.55
275.328	4.32
275.798	6.33
276.268	5.26
276.738	5.02
277.208	4.87
277.678	6.27
278.148	5.81
278.618	5.13
279.088	4.71
279.558	4.23
280.028	5.74
280.498	4.76
280.968	5.35
281.437	5.02
281.907	5.77
282.377	4.8
282.847	6.46
283.316	5.41
283.786	5.49
284.255	4.32
284.725	5.01
285.194	4.08
285.664	4.7
286.133	4.83
286.603	5.16
287.072	4.97
287.542	5.26
288.011	5.67
288.48	4.98
288.95	6
289.419	5.83
289.888	5.98
290.357	4.82
290.827	5.46
291.296	4.85
291.765	4.98
292.234	5.43
292.703	5.13
293.172	5.47
293.641	5.16
294.11	5.51
294.579	5.77
295.048	4.47
295.517	5.42
295.986	5.18
296.455	5.83
296.923	5.22
297.392	4.93
297.861	4.71
298.33	4.53
298.798	5.87
299.267	5.58
299.736	5.07
300.204	5.47
300.673	5.24
301.141	4.59
301.61	6.07
302.079	4.95
302.547	5.51
303.015	4.9
303.484	4.87
303.952	4.28
304.421	4.77
304.889	4.82
305.357	4.55
305.825	5.06
306.294	5.08
306.762	6.39
307.23	5.53
307.698	4.42
308.166	4.96
308.634	4.66
309.103	4.56
309.571	4.12
310.039	4.51
310.507	5.02
310.975	5.43
311.442	4.84
311.91	5.57
312.378	5.13
312.846	3.82
313.314	4.61
313.782	5.87
314.249	4.96
314.717	5.42
315.185	5.72
315.652	5.04
316.12	4.47
316.588	4.93
317.055	4.66
317.523	4.01
317.99	4.05
318.458	5.49
318.925	5.05
319.393	4.41
319.86	4.16
320.328	4.2
320.795	4.79
321.262	4.88
321.73	3.85
322.197	4.04
322.664	4.45
323.131	4.73
323.598	4.2
324.066	4.03
324.533	3.66
325	5.59
325.467	4.11
325.934	4.68
326.401	5.19
326.868	5.3
327.335	5.18
327.802	4.49
328.269	4.58
328.735	3.42
329.202	4.39
329.669	4.74
330.136	5.09
330.603	5.7
331.069	4.8
331.536	5.86
332.003	4.28
332.469	4.96
332.936	4.61
333.402	3.97
333.869	4.28
334.336	5.88
334.802	4.84
335.268	4
335.735	4.93
336.201	5.11
336.668	4.51
337.134	5.24
337.6	6.04
338.067	4.49
338.533	4.67
338.999	3.54
339.465	4.86
339.931	4.68
340.398	5.8
340.864	5.16
341.33	5.54
341.796	3.92
342.262	4.39
342.728	4.15
343.194	5.63
343.66	4.61
344.126	4.8
344.592	3.08
345.057	4.85
345.523	5.43
345.989	4.1
346.455	4.27
346.921	4.99
347.386	4.06
347.852	3.53
348.318	4.05
348.783	3.16
349.249	5
349.714	4.05
350.18	5.84
350.645	4.82
351.111	4.97
351.576	5.51
352.042	4.65
352.507	4.16
352.973	3.82
353.438	3.21
353.903	4.39
354.369	3.54
354.834	4.69
355.299	4.37
355.764	4.78
356.229	4.29
356.695	5.99
357.16	3.09
357.625	4.74
358.09	5.45
358.555	4.77
359.02	3.6
359.485	2.88
359.95	4.39
360.415	4.67
360.879	4.98
361.344	5.17
361.809	3.92
362.274	3.55
362.739	5.5
363.203	4.76
363.668	3.44
364.133	4.88
364.597	3.84
365.062	3.94
365.527	3.05
365.991	3.15
366.456	4.64
366.92	4
367.385	4.97
367.849	4.04
368.314	4.62
368.778	4.25
369.242	3.72
369.707	4.3
370.171	4.52
370.635	4.52
371.1	2.95
371.564	5.1
372.028	4.27
372.492	5.45
372.956	3.2
373.42	4.87
373.884	3.23
374.348	5
374.812	3.64
375.276	5.85
375.74	3.76
376.204	5.02
376.668	4.56
377.132	4.78
377.596	3.68
378.06	4.57
378.524	5.28
378.987	3.76
379.451	4.18
379.915	2.52
380.378	3.29
380.842	3.24
381.306	4.95
381.769	5.78
382.233	3.49
382.696	5.24
383.16	3.82
383.623	4.19
384.087	3.91
384.55	3.67
385.014	4.65
385.477	2.64
385.94	3.07
386.404	5.06
386.867	2.82
387.33	4.46
387.793	3.97
388.256	3.83
388.72	2.73
389.183	4.09
389.646	4.52
390.109	4.56
390.572	4.53
391.035	4.02
391.498	4.51
391.961	3.01
392.424	3.39
392.887	4.1
393.35	3.86
393.812	4.76
394.275	3.38
394.738	3.92
395.201	4.74
395.664	4.7
396.126	3.9
396.589	3.67
397.052	4.4
397.514	4.47
397.977	3.78
398.439	4.61
398.902	4.07
399.364	4.17
399.827	2.57
400.289	5.02
400.752	5
401.214	2.96
401.676	4.81
402.139	3.87
402.601	3.75
403.063	4.44
403.525	4.66
403.988	3.68
404.45	3.36
404.912	4.35
405.374	5.5
405.836	2.57
406.298	3.59
406.76	4.44
407.222	2.93
407.684	4.35
408.146	3.56
408.608	4.24
409.07	4.29
409.532	3.99
409.994	4.14
410.456	4.07
410.917	2.64
411.379	4.45
411.841	4.34
412.303	2.75
412.764	5.56
413.226	4.04
413.687	3.01
414.149	3.27
414.611	3.49
415.072	3.25
415.534	4.37
415.995	2.67
416.457	4.83
416.918	5.51
417.379	4.01
417.841	3.13
418.302	4.61
418.763	3.99
419.225	3.19
419.686	3.92
420.147	4.09
420.608	4.23
421.069	3.94
421.53	3.81
421.991	3.48
422.453	3.54
422.914	3.76
423.375	4.07
423.836	2.93
424.297	3.86
424.757	3.41
425.218	5.29
425.679	3.22
426.14	4.08
426.601	3.15
427.062	4.4
427.522	3.56
427.983	4.81
428.444	5.39
428.904	3.04
429.365	5.91
429.826	3.37
430.286	3.57
430.747	2.1
431.207	2.89
431.668	3.2
432.128	3.68
432.589	3.87
433.049	1.39
433.509	5.06
433.97	1.52
434.43	2.73
434.89	3.15
435.351	3.51
435.811	3
436.271	4.56
436.731	1.69
437.191	4
437.651	3.89
438.112	5.47
438.572	3.29
439.032	3.01
439.492	3.78
439.952	2.9
440.412	3.75
440.871	4.73
441.331	3.36
441.791	2.72
442.251	3.71
442.711	4.08
443.171	7.36
443.63	4.56
444.09	4.05
444.55	1.69
445.009	4.03
445.469	3.71
445.929	3.34
446.388	3.21
446.848	3.16
447.307	3.03
447.767	5.52
448.226	4.86
448.686	4.1
449.145	2.75
449.604	5.85
450.064	3.08
450.523	2.09
450.982	5.48
451.442	3.9
451.901	4.49
452.36	2.4
452.819	4.73
453.278	2.89
453.737	3.35
454.197	4.18
454.656	3.4
455.115	2.95
455.574	2.69
456.033	2.09
456.492	3.1
456.95	4.06
457.409	1.02
457.868	1.88
458.327	5.03
458.786	4.79
459.245	3.04
459.703	2.65
460.162	3.07
460.621	3.79
461.079	4.5
461.538	2.23
461.997	2.44
462.455	4.37
462.914	4.44
463.372	4.49
463.831	3.62
464.289	3.54
464.748	3.1
465.206	5.56
465.664	4.97
466.123	3.43
466.581	1.53
467.039	4.24
467.497	2.34
467.956	2.9
468.414	5.36
468.872	2.55
469.33	1.92
469.788	4.74
470.246	4.56
470.704	2.29
471.162	4.53
471.62	2.61
472.078	4.74
472.536	2.33
472.994	3.57
473.452	4.33
473.91	3.13
474.368	3.33
474.826	4.71
475.283	4.85
475.741	4.83
476.199	3.07
476.656	5.27
477.114	5.36
477.572	2.14
478.029	3.19
478.487	0.56
478.944	5.08
479.402	2.66
479.859	6.44
480.317	3.94
480.774	3.45
481.232	3.52
481.689	2.96
482.146	4.52
482.604	2.18
483.061	4.15
483.518	4.5
483.975	2.05
484.433	2.6
484.89	3.02
485.347	2.96
485.804	2.96
486.261	5.75
486.718	3.06
487.175	2.9
487.632	6.75
488.089	5.6
488.546	2.79
489.003	3.65
489.46	4.23
489.917	2.47
490.373	3.25
490.83	2.55
491.287	4.28
491.744	6.39
492.2	3.07
492.657	6.15
493.114	5.19
493.57	2.79
494.027	3.36
494.484	2.84
494.94	4.24
495.397	6.01
495.853	3.79
496.31	3.34
496.766	5.62
497.222	1.89
497.679	3.41
498.135	3.23
498.591	4.65
499.048	3.13
499.504	3.5
499.96	4.54
500.416	4.5
500.872	4.06
501.329	1.57
501.785	4.18
502.241	4.06
502.697	3.84
503.153	3.23
503.609	3.02
504.065	3.3
504.521	3.58
504.977	6.09
505.432	2.23
505.888	4.34
506.344	4.25
506.8	4.4
507.256	3.19
507.711	4.74
508.167	3.94
508.623	4.1
509.078	3.49
509.534	2.29
509.99	4.1
510.445	4.52
510.901	1.83
511.356	4.48
511.812	5.45
512.267	2.88
512.722	4.37
513.178	4.12
513.633	4.81
514.089	4.95
514.544	4.47
514.999	3.4
515.454	1.96
515.91	4.95
516.365	2.93
516.82	3.83
517.275	3.25
517.73	3.63
518.185	3.19
518.64	1.79
519.095	5.02
519.55	5.93
520.005	3.26
520.46	2.17
520.915	5.47
521.37	3.55
521.825	3.48
522.28	3.27
522.734	1.9
523.189	4.28
523.644	4.54
524.099	5.2
524.553	2.94
525.008	4.97
525.462	5.11
525.917	2.97
526.372	3.6
526.826	4.45
527.281	4.08
527.735	3.42
528.19	3.36
528.644	4.12
529.098	2.94
529.553	3.58
530.007	3.91
530.461	3.72
530.916	3.8
531.37	1.7
531.824	4.96
532.278	3.42
532.732	3.17
533.186	4.38
533.641	3.09
534.095	4.68
534.549	1.94
535.003	3.97
535.457	3.62
535.911	4.31
536.365	2.12
536.818	4.47
537.272	3.93
537.726	3.35
538.18	2.11
538.634	3.78
539.087	4.14
539.541	3.08
539.995	3.72
540.449	2.64
540.902	4.14
541.356	2.42
541.809	3.61
542.263	1.91
542.716	4.51
543.17	2.98
543.623	4.4
544.077	2.78
544.53	3.49
544.984	4.17
545.437	3.22
545.89	3.98
546.344	1.75
546.797	5.54
547.25	2.13
547.703	4.43
548.157	5.13
548.61	2.85
549.063	4.7
549.516	2.18
549.969	2.55
550.422	4.25
550.875	4.53
551.328	4.31
551.781	4.52
552.234	4.42
552.687	2.8
553.14	2.91
553.592	3.95
554.045	4.04
554.498	3.71
554.951	4.21
555.404	3.78
555.856	2.76
556.309	3.44
556.762	2.91
557.214	3.55
557.667	3.27
558.119	2.74
558.572	2.83
559.024	3.92
559.477	3.94
559.929	3.67
560.382	4.08
560.834	3.68
561.286	4.31
561.739	3.49
562.191	2.85
562.643	4.03
563.095	2.82
563.548	2.8
564	3.98
564.452	4.26
564.904	4.22
565.356	3.3
565.808	4.03
566.26	3.84
566.712	4.36
567.164	2.39
567.616	4.65
568.068	4.41
568.52	4.13
568.972	3.71
569.424	3.69
569.876	3.77
570.327	3.9
570.779	3.94
571.231	4.71
571.682	3.74
572.134	3.3
572.586	3.18
573.037	3.89
573.489	3.44
573.941	4.27
574.392	3.57
574.844	3.2
575.295	4.53
575.746	3.64
576.198	4.38
576.649	4.59
577.101	2.94
577.552	4.26
578.003	3.43
578.454	4.26
578.906	3.74
579.357	3.71
579.808	4.39
580.259	3.26
580.71	4.47
581.161	3.72
581.612	3.87
582.064	5.06
582.515	4.81
582.965	4.16
583.416	3.84
583.867	4.45
584.318	3.77
584.769	3.9
585.22	4.17
585.671	3.52
586.122	4.24
586.572	2.57
587.023	4.02
587.474	3.89
587.924	2.99
588.375	3.76
588.826	3.08
589.276	3.95
589.727	5.16
590.177	4.84
590.628	3.68
591.078	4.53
591.529	4.3
591.979	3.51
592.429	4.16
592.88	4.03
593.33	3.86
593.78	4.07
594.231	4.67
594.681	4.1
595.131	4.2
595.581	4.15
596.031	3.72
596.481	4.1
596.932	4.37
597.382	4.61
597.832	5.28
598.282	4.09
598.732	4.21
599.182	3.59
599.632	3.53
600.081	3.58
600.531	4.04
600.981	2.98
601.431	3.94
601.881	4
602.33	3.76
602.78	4.83
603.23	4.85
603.679	4.66
604.129	4.53
604.579	3.67
605.028	4.53
605.478	3.66
605.927	4.86
606.377	4.43
606.826	3.5
607.276	4.97
607.725	4.44
608.175	4.28
608.624	4.29
609.073	4.66
609.522	3.68
609.972	4.21
610.421	5.01
610.87	4.11
611.319	4.13
611.768	4.26
612.218	3.75
612.667	3.99
613.116	4.77
613.565	4.55
614.014	3.48
614.463	3.63
614.912	4.05
615.361	4.37
615.81	3.76
616.258	4.89
616.707	4.58
617.156	4.09
617.605	4.45
618.054	4.81
618.502	4.03
618.951	3.93
619.4	4.89
619.848	3.36
620.297	5.1
620.745	5.06
621.194	4.14
621.642	4.15
622.091	3.72
622.539	4.33
622.988	4.13
623.436	4.28
623.885	3.61
624.333	4.95
624.781	4.83
625.23	4.57
625.678	4.41
626.126	4.12
626.574	5.04
627.022	5.27
627.471	3.9
627.919	5.14
628.367	4.02
628.815	3.85
629.263	4.3
629.711	4.24
630.159	5.49
630.607	4.46
631.055	3.99
631.503	4.29
631.95	4.13
632.398	4.37
632.846	4.94
633.294	3.76
633.742	4.41
634.189	4.17
634.637	4.21
635.085	4.69
635.532	3.92
635.98	4.11
636.427	4.43
636.875	4.11
637.323	4.73
637.77	3.96
638.217	3.13
638.665	4.27
639.112	4.95
639.56	4.97
640.007	5.36
640.454	4
640.902	4.62
641.349	4.47
641.796	4.48
642.243	4.42
642.69	4.33
643.138	5.24
643.585	3.94
644.032	4.26
644.479	4.1
644.926	4.19
645.373	4.16
645.82	4.85
646.267	3.78
646.714	4.17
647.161	4.29
647.607	4.73
648.054	4.26
648.501	4.97
648.948	3.92
649.395	4.8
649.841	3.9
650.288	3.97
650.735	4.06
651.181	4.66
651.628	4.74
652.075	4.55
652.521	4.85
652.968	4.01
653.414	4.09
653.861	4.5
654.307	4.27
654.753	4.53
655.2	4.59
655.646	4.83
656.092	3.76
656.539	4.59
656.985	4.56
657.431	4.23
657.877	4.26
658.324	4.32
658.77	4.45
659.216	4.66
659.662	4.28
660.108	4.71
660.554	4.26
661	4.03
661.446	4.19
661.892	4.33
662.338	4.11
662.784	4.64
663.23	4.5
663.675	4.12
664.121	5
664.567	4.24
665.013	4.54
665.458	4.26
665.904	4.95
666.35	4.56
666.795	4.61
667.241	4.2
667.687	3.94
668.132	4.65
668.578	4.43
669.023	4.3
669.469	4.45
669.914	5.16
670.359	3.94
670.805	4.7
671.25	4.16
671.695	4.38
672.141	4.9
672.586	4.85
673.031	4.66
673.476	5.24
673.922	4.35
674.367	4.03
674.812	4.07
675.257	4.11
675.702	4.78
676.147	4.24
676.592	4.59
677.037	4.41
677.482	4.88
677.927	5.15
678.372	4.1
678.817	4.41
679.261	4.45
679.706	4.87
680.151	4.15
680.596	4.65
681.04	4.81
681.485	5.07
681.93	5.02
682.374	4.82
682.819	4.08
683.264	4.89
683.708	4.89
684.153	3.82
684.597	4.86
685.042	4.3
685.486	4.46
685.93	4.7
686.375	4.86
686.819	4.87
687.263	5.02
687.708	4.77
688.152	4.11
688.596	4.35
689.04	4.66
689.485	4.92
689.929	4.68
690.373	4.55
690.817	4.5
691.261	4.82
691.705	4.29
692.149	4.71
692.593	4.94
693.037	4.56
693.481	5.05
693.925	4.77
694.369	4.6
694.812	4.77
695.256	4.75
695.7	4.92
696.144	4.45
696.587	4.83
697.031	4.4
697.475	5.2
697.918	4.38
698.362	4.86
698.806	4.8
699.249	4.7
699.693	4.73
700.136	4.91
700.58	5.16
701.023	4.63
701.466	4.56
701.91	5
702.353	4.76
702.796	4.59
703.24	4.49
703.683	4.66
704.126	5.13
704.569	4.79
705.013	5.01
705.456	5
705.899	4.74
706.342	4.78
706.785	5.3
707.228	4.62
707.671	4.57
708.114	4.34
708.557	4.41
709	4.63
709.443	4.73
709.886	4.31
710.328	5.21
710.771	5.1
711.214	5.05
711.657	4.43
712.099	4.75
712.542	4.72
712.985	4.89
713.427	4.65
713.87	4.02
714.313	4.89
714.755	4.78
715.198	4.78
715.64	4.78
716.083	4.95
716.525	4.73
716.967	5.09
717.41	4.99
717.852	4.98
718.295	4.97
718.737	5.2
719.179	4.64
719.621	4.39
720.063	4.82
720.506	4.53
720.948	5.19
721.39	5.01
721.832	3.98
722.274	4.94
722.716	4.29
723.158	4.98
723.6	4.69
724.042	4.96
724.484	4.86
724.926	4.72
725.368	4.93
725.81	4.37
726.251	4.81
726.693	5.1
727.135	5.17
727.577	4.85
728.018	4.78
728.46	4.93
728.902	5.38
729.343	4.9
729.785	4.67
730.226	5.24
730.668	5.33
731.109	4.62
731.551	5.04
731.992	4.98
732.434	4.89
732.875	4.88
733.316	4.94
733.758	4.85
734.199	4.81
734.64	5.01
735.081	4.75
735.523	4.65
735.964	5.3
736.405	5.26
736.846	4.94
737.287	5
737.728	5.02
738.169	5.16
738.61	5.14
739.051	4.8
739.492	4.62
739.933	4.4
740.374	4.87
740.815	4.65
741.256	5.35
741.696	4.95
742.137	4.79
742.578	4.66
743.019	5.03
743.459	5.13
743.9	4.65
744.341	4.86
744.781	5.23
745.222	4.57
745.662	4.95
746.103	5.44
746.543	5.12
746.984	5.38
747.424	5.1
747.865	5.13
748.305	4.99
748.745	4.93
749.186	4.56
749.626	5.38
750.066	5.35
750.506	4.97
750.947	4.96
751.387	4.87
751.827	4.91
752.267	4.75
752.707	5.16
753.147	5.05
753.587	4.92
754.027	4.82
754.467	5.12
754.907	4.98
755.347	4.89
755.787	5.07
756.227	5.25
756.667	4.56
757.107	5.17
757.546	4.81
757.986	4.56
758.426	5.01
758.865	4.81
759.305	5.1
759.745	5.15
760.184	5.27
760.624	4.99
761.063	5.36
761.503	5.12
761.943	4.81
762.382	5.03
762.821	4.8
763.261	5.02
763.7	5.42
764.14	4.48
764.579	4.73
765.018	5.15
765.457	4.93
765.897	4.87
766.336	5.34
766.775	4.84
767.214	4.94
767.653	5.54
768.092	5.05
768.531	5.05
768.97	5.13
769.409	4.97
769.848	4.99
770.287	5.16
770.726	5.1
771.165	5.11
771.604	5.23
772.043	5.38
772.482	4.83
772.92	5.64
773.359	4.89
773.798	4.91
774.237	5.08
774.675	4.86
775.114	5.04
775.553	5.21
775.991	5.31
776.43	4.98
776.868	5.38
777.307	4.98
777.745	5.24
778.184	5.35
778.622	5.1
779.06	5.17
779.499	5.67
779.937	5.28
780.375	5.5
780.814	4.79
781.252	5.4
781.69	5.16
782.128	5.43
782.566	5.57
783.004	5.61
783.443	4.78
783.881	5.35
784.319	5.46
784.757	5.08
785.195	4.96
785.633	5.45
786.071	5.19
786.508	4.95
786.946	5.24
787.384	5.97
787.822	5.45
788.26	5.24
788.697	5.41
789.135	5.39
789.573	5.76
790.011	5.13
790.448	5.05
790.886	5.31
791.323	5.77
791.761	5.41
792.198	4.98
792.636	5.44
793.073	5.25
793.511	5.05
793.948	5.3
794.386	5.25
794.823	5.06
795.26	5.49
795.698	5.88
796.135	5.5
796.572	5.14
797.009	5.61
797.446	5.46
797.884	5.63
798.321	5.91
798.758	4.93
799.195	5.48
799.632	5.4
800.069	5.33
800.506	5.92
800.943	5.39
801.38	5.36
801.817	5.86
802.254	5.63
802.69	5.53
803.127	4.97
803.564	5.42
804.001	5.6
804.438	5.26
804.874	5.04
805.311	5.43
805.748	5.37
806.184	5.6
806.621	5.61
807.057	5.62
807.494	5.68
807.93	5.78
808.367	5.69
808.803	5.49
809.24	5.76
809.676	5.49
810.112	5.53
810.549	5.63
810.985	5.39
811.421	5.74
811.857	5.92
812.294	5.84
812.73	5.8
813.166	5.9
813.602	5.79
814.038	5.86
814.474	5.72
814.91	5.8
815.346	5.86
815.782	5.58
816.218	5.66
816.654	6.04
817.09	5.55
817.526	5.98
817.962	6.11
818.398	5.52
818.833	5.51
819.269	5.55
819.705	6.15
820.141	5.54
820.576	5.7
821.012	5.8
821.447	5.84
821.883	5.89
822.319	5.8
822.754	5.72
823.19	5.81
823.625	5.96
824.061	5.76
824.496	5.88
824.931	5.77
825.367	5.64
825.802	5.81
826.237	5.77
826.673	5.43
827.108	5.65
827.543	5.66
827.978	5.81
828.413	5.91
828.849	5.96
829.284	5.8
829.719	6.06
830.154	5.68
830.589	5.57
831.024	6.09
831.459	5.82
831.894	5.87
832.329	6.15
832.763	6.27
833.198	6.06
833.633	5.71
834.068	6.18
834.503	5.97
834.937	6.04
835.372	5.72
835.807	5.98
836.241	5.87
836.676	6.26
837.111	6.25
837.545	6.13
837.98	6.25
838.414	5.72
838.849	5.86
839.283	5.67
839.717	6.44
840.152	6.09
840.586	5.96
841.021	5.94
841.455	5.74
841.889	5.99
842.323	5.94
842.758	6.01
843.192	6.08
843.626	6.73
844.06	6.02
844.494	6.11
844.928	6.22
845.362	6.43
845.796	6.24
846.23	5.97
846.664	5.83
847.098	6.1
847.532	6.07
847.966	6.42
848.4	5.83
848.834	6.14
849.267	5.84
849.701	6.48
850.135	6.44
850.569	5.96
851.002	6.12
851.436	5.96
851.87	6.09
852.303	6.45
852.737	6.26
853.17	6.33
853.604	6.08
854.037	6.5
854.471	5.77
854.904	6.41
855.337	6.51
855.771	6.54
856.204	6.26
856.637	5.91
857.071	6.3
857.504	6.25
857.937	6.49
858.37	6.36
858.804	6.25
859.237	6.05
859.67	6.04
860.103	6.24
860.536	6.41
860.969	6.35
861.402	6.12
861.835	6.67
862.268	6.31
862.701	6.16
863.134	6.09
863.566	6.47
863.999	6.25
864.432	6.22
864.865	6.51
865.298	6.17
865.73	6.23
866.163	6.14
866.596	6.35
867.028	6.26
867.461	6.59
867.893	6.39
868.326	6.25
868.758	6.21
869.191	6.33
869.623	6.63
870.056	6.18
870.488	6.6
870.92	6.47
871.353	6.57
871.785	6.33
872.217	6.36
872.65	6.61
873.082	6.29
873.514	6.39
873.946	6.47
874.378	6.6
874.81	6.27
875.243	6.42
875.675	6.3
876.107	6.71
876.539	6.58
876.971	6.68
877.403	6.63
877.834	6.52
878.266	6.43
878.698	6.61
879.13	6.7
879.562	6.63
879.994	6.47
880.425	6.58
880.857	6.42
881.289	6.7
881.72	6.59
882.152	6.66
882.584	6.72
883.015	6.52
883.447	6.91
883.878	6.49
884.31	6.84
884.741	6.97
885.173	6.44
885.604	6.85
886.035	6.56
886.467	6.55
886.898	6.7
887.329	6.8
887.76	6.65
888.192	6.59
888.623	6.77
889.054	6.6
889.485	6.43
889.916	6.69
890.347	6.72
890.778	6.92
891.209	6.75
891.64	6.6
892.071	6.92
892.502	6.55
892.933	6.88
893.364	6.68
893.795	6.76
894.226	6.86
894.657	6.8
895.087	6.88
895.518	6.72
895.949	6.86
896.38	6.69
896.81	6.93
897.241	6.97
897.671	7.07
898.102	7.02
898.533	6.93
898.963	7.21
899.394	7.04
899.824	6.9
900.254	6.76
900.685	7.15
901.115	7.23
901.546	7.25
901.976	7.17
902.406	6.96
902.836	7.16
903.267	7.23
903.697	6.89
904.127	7.08
904.557	7.09
904.987	6.85
905.417	7.14
905.847	7.28
906.277	7.01
906.707	6.98
907.137	6.79
907.567	7.17
907.997	7.15
908.427	7.25
908.857	7.25
909.287	7.44
909.717	7.17
910.146	7.26
910.576	7.06
911.006	7.2
911.436	7.29
911.865	7.42
912.295	7.03
912.724	7.3
913.154	7.22
913.584	7.17
914.013	7.06
914.443	7.19
914.872	7.16
915.302	7.28
915.731	7.12
916.16	7.47
916.59	7.02
917.019	7.24
917.448	7.49
917.878	7.27
918.307	7.09
918.736	7.2
919.165	7.53
919.594	7.33
920.023	7.57
920.452	7.39
920.882	7.63
921.311	7.5
921.74	7.39
922.169	7.51
922.597	7.63
923.026	7.67
923.455	7.37
923.884	7.77
924.313	7.32
924.742	7.6
925.171	7.38
925.599	7.71
926.028	7.42
926.457	7.58
926.885	7.75
927.314	7.65
927.743	7.66
928.171	7.69
928.6	7.59
929.028	7.69
929.457	7.61
929.885	7.64
930.314	7.54
930.742	7.72
931.17	7.56
931.599	7.78
932.027	7.69
932.455	7.4
932.884	7.69
933.312	7.75
933.74	7.79
934.168	7.54
934.596	7.66
935.025	7.81
935.453	7.81
935.881	7.88
936.309	7.91
936.737	7.84
937.165	7.72
937.593	7.53
938.021	7.52
938.449	7.99
938.876	8.11
939.304	8.14
939.732	8.01
940.16	7.59
940.588	8.05
941.015	7.96
941.443	8.06
941.871	7.9
942.298	7.83
942.726	7.39
943.154	8.05
943.581	8.22
944.009	7.59
944.436	8.21
944.864	8.18
945.291	7.58
945.718	7.91
946.146	8.06
946.573	7.73
947.001	7.86
947.428	7.95
947.855	7.89
948.282	8.09
948.71	8.04
949.137	7.88
949.564	8.13
949.991	7.95
950.418	8.14
950.845	7.96
951.272	8.02
951.699	7.78
952.126	8.03
952.553	8.29
952.98	8.16
953.407	8.12
953.834	8.23
954.261	8.41
954.688	8.11
955.114	8.12
955.541	8.17
955.968	8.21
956.395	8.19
956.821	8.33
957.248	8.47
957.674	8.37
958.101	8.34
958.528	8.35
958.954	8.41
959.381	8.39
959.807	8.26
960.234	8.2
960.66	8.36
961.086	8.35
961.513	8.28
961.939	8.28
962.365	8.37
962.792	8.17
963.218	8.53
963.644	8.52
964.07	8.49
964.496	8.5
964.923	8.43
965.349	8.31
965.775	8.66
966.201	8.51
966.627	8.71
967.053	8.57
967.479	8.65
967.905	8.8
968.331	8.71
968.756	8.58
969.182	8.49
969.608	8.66
970.034	8.71
970.46	8.44
970.885	8.71
971.311	8.82
971.737	8.89
972.162	8.66
972.588	8.58
973.014	8.68
973.439	8.79
973.865	8.56
974.29	8.84
974.716	8.68
975.141	8.99
975.567	8.81
975.992	8.96
976.417	8.85
976.843	8.86
977.268	8.8
977.693	8.96
978.119	8.93
978.544	9.05
978.969	8.81
979.394	8.75
979.819	8.82
980.244	8.85
980.669	9.07
981.095	8.9
981.52	8.87
981.945	9.01
982.369	8.82
982.794	8.98
983.219	9.06
983.644	8.95
984.069	9.14
984.494	9.18
984.919	9.17
985.343	9.2
985.768	9.12
986.193	9.12
986.618	9.08
987.042	9.3
987.467	9.22
987.891	9.22
988.316	9.17
988.741	9.07
989.165	9.26
989.59	9.29
990.014	9.12
990.438	9.39
990.863	9.18
991.287	9.38
991.712	9.15
992.136	9.37
992.56	9.29
992.984	9.35
993.409	9.18
993.833	9.44
994.257	9.36
994.681	9.37
995.105	9.45
995.529	9.12
995.953	9.32
996.377	9.34
996.801	9.63
997.225	9.43
997.649	9.42
998.073	9.39
998.497	9.51
998.921	9.33
999.345	9.52
999.769	9.61
1000.192	9.78
1000.616	9.37
1001.04	9.39
1001.464	9.48
1001.887	9.36
1002.311	9.36
1002.734	9.3
1003.158	9.59
1003.582	9.62
1004.005	9.66
1004.429	9.79
1004.852	9.41
1005.275	10.12
1005.699	9.78
1006.122	9.67
1006.546	9.97
1006.969	9.69
1007.392	9.49
1007.815	9.5
1008.239	9.6
1008.662	9.98
1009.085	9.7
1009.508	9.96
1009.931	9.6
1010.354	9.97
1010.778	9.75
1011.201	10.01
1011.624	9.77
1012.047	9.95
1012.469	9.88
1012.892	9.75
1013.315	9.85
1013.738	9.99
1014.161	9.8
1014.584	10
1015.007	9.99
1015.429	10.27
1015.852	10.16
1016.275	10.02
1016.697	10.07
1017.12	9.93
1017.543	10.13
1017.965	10.45
1018.388	10.34
1018.81	10.2
1019.233	10.26
1019.655	10.33
1020.078	9.96
1020.5	10.1
1020.922	10.04
1021.345	10.32
1021.767	10.3
1022.189	10.14
1022.612	9.98
1023.034	10.43
1023.456	10.67
1023.878	10.31
1024.301	10.31
1024.723	10.35
1025.145	10.43
1025.567	10.44
1025.989	10.33
1026.411	10.59
1026.833	10.62
1027.255	10.38
1027.677	10.41
1028.099	10.38
1028.52	10.39
1028.942	10.44
1029.364	10.42
1029.786	10.5
1030.208	10.64
1030.629	10.32
1031.051	10.45
1031.473	10.39
1031.894	10.61
1032.316	10.27
1032.738	10.67
1033.159	10.58
1033.581	10.53
1034.002	10.55
1034.424	10.74
1034.845	11.02
1035.267	11.01
1035.688	10.64
1036.109	10.78
1036.531	10.74
1036.952	10.7
1037.373	10.84
1037.794	10.56
1038.216	10.99
1038.637	10.37
1039.058	10.98
1039.479	11.05
1039.9	10.86
1040.321	10.88
1040.742	10.91
1041.163	11.04
1041.584	10.99
1042.005	10.97
1042.426	11.23
1042.847	11.02
1043.268	10.88
1043.689	11.15
1044.11	11.41
1044.53	11.33
1044.951	11.01
1045.372	10.78
1045.793	10.76
1046.213	10.68
1046.634	11.2
1047.055	10.99
1047.475	10.9
1047.896	11.58
1048.316	11.28
1048.737	11.35
1049.157	11.38
1049.578	11.35
1049.998	11.19
1050.419	11.3
1050.839	11.55
1051.259	11.31
1051.68	11.2
1052.1	11.76
1052.52	11.15
1052.94	11.2
1053.361	11.08
1053.781	11.56
1054.201	11.64
1054.621	11.39
1055.041	11.39
1055.461	11.2
1055.881	11.24
1056.301	11.4
1056.721	11.63
1057.141	11.7
1057.561	11.15
1057.981	11.34
1058.401	11.49
1058.82	11.49
1059.24	10.84
1059.66	11.71
1060.08	11.55
1060.499	11.7
1060.919	11.76
1061.339	11.66
1061.758	11.85
1062.178	11.51
1062.598	11.57
1063.017	11.23
1063.437	11.05
1063.856	12.16
1064.276	11.44
1064.695	11.17
1065.114	11.46
1065.534	11.9
1065.953	11.63
1066.372	11.78
1066.792	11.4
1067.211	11.93
1067.63	12.16
1068.049	11.86
1068.469	11.46
1068.888	11.86
1069.307	11.78
1069.726	11.72
1070.145	12.03
1070.564	11.35
1070.983	12.06
1071.402	10.49
1071.821	11.92
1072.24	12
1072.659	11.63
1073.078	12.25
1073.496	11.53
1073.915	11.79
1074.334	11.71
1074.753	12.19
1075.171	12.47
1075.59	12.56
1076.009	11.93
1076.427	11.99
1076.846	11.04
1077.265	12.05
1077.683	12.43
1078.102	12.12
1078.52	11.45
1078.939	12.01
1079.357	11.29
1079.776	12.55
1080.194	12.59
1080.612	12.29
1081.031	11.99
1081.449	11.52
1081.867	13.65
1082.285	12.43
1082.704	11.65
1083.122	12.42
1083.54	12.3
1083.958	11.69
1084.376	11.86
1084.794	12.39
1085.212	11.53
1085.63	12.75
1086.048	11.7
1086.466	13.1
1086.884	12.72
1087.302	12.08
1087.72	11.82
1088.138	12.28
1088.555	13.17
1088.973	12.36
1089.391	11.61
1089.809	11.27
1090.226	12.11
1090.644	10.99
1091.062	12.18
1091.479	11.33
1091.897	12.07
1092.314	12.2
1092.732	12.6
1093.15	12.36
1093.567	11.56
1093.984	13.23
1094.402	12.23
1094.819	13.18
1095.237	13.71
1095.654	10.56
1096.071	12.43
1096.488	12.18
1096.906	13.05
1097.323	12.53
1097.74	11.94
1098.157	13.05
1098.574	11.47
1098.991	12.75
1099.409	11.67
1099.826	12.76
1100.243	10.92
1100.66	12.89
1101.077	12.66
1101.494	13.42
1101.91	11.71
1102.327	12.25
1102.744	12.14
1103.161	13.72
1103.578	11.3
1103.994	13.2
1104.411	12.92
1104.828	13.04
1105.245	10.86
1105.661	14.03
1106.078	12.2
1106.494	12.08
1106.911	13.29
1107.328	13.56
1107.744	13.18
1108.161	12.81
1108.577	12.23
1108.993	11.55
1109.41	16.01
1109.826	14.23
1110.242	10.96
1110.659	14.14
1111.075	14.56
1111.491	10.35
1111.908	12.79
1112.324	12.26
1112.74	28.09
1113.156	9.95
1113.572	15.06
1113.988	13.06
1114.404	13.14
1114.82	11.55
1115.236	12.26
1115.652	10.83
1116.068	12.93
1116.484	10.37
1116.9	16.05
1117.316	13.54
1117.732	-8.06
1118.147	90.38
1118.563	82.14
1118.979	153.12
