Data from JCR0031_WhiteVentral_Reflection_00001.txt Node
Date: Fri Jul 31 14:33:34 ACST 2020
User: Stacey Dix
Spectrometer: MAYP113282
Scans to average: 1
Trigger mode: 0
Integration Time (sec): 1.000000E-1
Electric dark correction enabled: true
Boxcar width: 0
XAxis mode: Wavelengths
Number of Pixels in Spectrum: 2068
>>>>>Begin Spectral Data<<<<<
198.791	0
199.266	-8.33
199.74	150
200.215	-350
200.69	0.94
201.164	-2.83
201.639	-3.33
202.114	1.83
202.588	7.93
203.063	41.01
203.537	0.66
204.012	7.33
204.486	14.06
204.961	27.7
205.435	4.91
205.909	8.25
206.384	7.01
206.858	5.92
207.332	-18.75
207.807	5.46
208.281	8.9
208.755	10.15
209.229	21.22
209.703	-14.22
210.177	4.14
210.651	-13.02
211.126	30.74
211.6	13.12
212.074	5.59
212.548	18.44
213.021	7.14
213.495	8.12
213.969	9.42
214.443	12.95
214.917	12.43
215.391	2.03
215.864	5.56
216.338	10.74
216.812	10.05
217.286	13.8
217.759	5
218.233	5.87
218.706	4.46
219.18	10.08
219.654	7.8
220.127	17.77
220.6	-0.95
221.074	-3.64
221.547	6.23
222.021	9.44
222.494	6.29
222.967	7.91
223.441	0.72
223.914	8.2
224.387	6.36
224.86	5.92
225.334	-1.25
225.807	2.25
226.28	3.55
226.753	4.84
227.226	2.36
227.699	4.7
228.172	0.7
228.645	4.57
229.118	5.46
229.591	0.81
230.064	6.33
230.537	1.91
231.01	2.98
231.482	1.99
231.955	-0.78
232.428	4.03
232.901	1.45
233.373	1.95
233.846	2.52
234.319	4.57
234.791	1.07
235.264	1.75
235.736	2.95
236.209	3.85
236.681	1.95
237.154	2.24
237.626	2.8
238.099	1.96
238.571	2.8
239.044	3.25
239.516	2.11
239.988	3.15
240.46	3.43
240.933	2.21
241.405	2.22
241.877	3.1
242.349	2.06
242.821	3.71
243.293	2.86
243.765	1.69
244.237	1.39
244.71	2.41
245.181	2.88
245.653	2.74
246.125	2.07
246.597	3.13
247.069	2.8
247.541	3.12
248.013	2.87
248.485	2.69
248.956	2.31
249.428	2.6
249.9	2.5
250.371	2.59
250.843	2.58
251.315	1.93
251.786	3.23
252.258	2.64
252.729	2.28
253.201	1.9
253.672	1.26
254.144	2.44
254.615	2.39
255.086	1.73
255.558	2.74
256.029	2.13
256.5	2.31
256.972	1.37
257.443	2.13
257.914	1.89
258.385	1.9
258.856	1.74
259.327	2.62
259.799	1.84
260.27	2.47
260.741	1.42
261.212	2.03
261.683	1.92
262.154	2.2
262.624	2.37
263.095	2.13
263.566	1.5
264.037	1.91
264.508	2.33
264.979	2.16
265.449	2.32
265.92	1.85
266.391	1.92
266.861	2.1
267.332	2.04
267.803	1.89
268.273	2.01
268.744	1.97
269.214	1.52
269.685	2.09
270.155	2.2
270.626	1.45
271.096	1.93
271.566	1.96
272.037	1.49
272.507	1.88
272.977	2.59
273.448	2.23
273.918	1.18
274.388	1.57
274.858	2.21
275.328	1.98
275.798	1.1
276.268	1.63
276.738	1.68
277.208	1.63
277.678	1.93
278.148	1.87
278.618	1.79
279.088	1.99
279.558	1.9
280.028	1.64
280.498	2.06
280.968	1.48
281.437	2.08
281.907	1.8
282.377	1.69
282.847	1.74
283.316	1.06
283.786	1.88
284.255	0.84
284.725	1.43
285.194	1.72
285.664	2.37
286.133	1.56
286.603	1.74
287.072	1.86
287.542	1.32
288.011	1.88
288.48	1.44
288.95	1.71
289.419	1.44
289.888	1.68
290.357	1.93
290.827	1.92
291.296	1.54
291.765	1.53
292.234	2.02
292.703	1.42
293.172	1.9
293.641	1.74
294.11	1.83
294.579	1.44
295.048	1.17
295.517	1.78
295.986	1.63
296.455	1.93
296.923	2.23
297.392	1.77
297.861	2.18
298.33	1.63
298.798	1.81
299.267	1.71
299.736	1.25
300.204	1.8
300.673	1.65
301.141	1.67
301.61	2.62
302.079	1.72
302.547	1.75
303.015	1.6
303.484	1.87
303.952	1.78
304.421	2.29
304.889	2.17
305.357	1.46
305.825	2.71
306.294	1.16
306.762	1.85
307.23	1.45
307.698	1.43
308.166	1.94
308.634	2.27
309.103	1.95
309.571	1.67
310.039	1.61
310.507	1.98
310.975	1.73
311.442	1.52
311.91	1.84
312.378	2.06
312.846	2.1
313.314	1.81
313.782	2.51
314.249	1.75
314.717	2.13
315.185	1.76
315.652	1.83
316.12	2.27
316.588	1.84
317.055	2.07
317.523	1.55
317.99	1.76
318.458	1.68
318.925	2.46
319.393	2.17
319.86	1.83
320.328	2.69
320.795	2.65
321.262	2.6
321.73	2.87
322.197	2.51
322.664	3.62
323.131	3.91
323.598	3.44
324.066	3.96
324.533	3.74
325	4.2
325.467	4.58
325.934	4.74
326.401	5.71
326.868	5.19
327.335	5.7
327.802	6.37
328.269	5.69
328.735	7.23
329.202	6.84
329.669	7.95
330.136	7.57
330.603	7.74
331.069	8.22
331.536	8.13
332.003	8.39
332.469	8.67
332.936	9.03
333.402	9.16
333.869	8.26
334.336	9.02
334.802	9.24
335.268	9.62
335.735	9.12
336.201	8.13
336.668	9.77
337.134	8.72
337.6	8.89
338.067	7.85
338.533	10.19
338.999	8.02
339.465	9.15
339.931	8.75
340.398	9.86
340.864	8.93
341.33	9.19
341.796	9.53
342.262	9.01
342.728	9.24
343.194	9.63
343.66	9.29
344.126	9.11
344.592	9.16
345.057	9.65
345.523	9.16
345.989	9.23
346.455	9.45
346.921	9.28
347.386	8.91
347.852	10.74
348.318	10.28
348.783	9.5
349.249	9.21
349.714	9
350.18	9.92
350.645	9.42
351.111	8.81
351.576	9.84
352.042	8.85
352.507	10.23
352.973	10.01
353.438	9.28
353.903	9.33
354.369	8.77
354.834	9.08
355.299	9.47
355.764	9.86
356.229	9.54
356.695	8.99
357.16	8.59
357.625	8.36
358.09	8.61
358.555	9.15
359.02	8.87
359.485	10.26
359.95	9.63
360.415	9.18
360.879	8.99
361.344	8.22
361.809	9.79
362.274	8.95
362.739	8.78
363.203	10.08
363.668	9.73
364.133	8.8
364.597	10.1
365.062	10.06
365.527	9.92
365.991	10.48
366.456	9.46
366.92	10
367.385	10
367.849	10.75
368.314	11.91
368.778	10.27
369.242	9.89
369.707	10.21
370.171	8.58
370.635	10.51
371.1	11.15
371.564	10.32
372.028	9.47
372.492	10.38
372.956	11.69
373.42	9.62
373.884	10.39
374.348	11.36
374.812	11.54
375.276	10.55
375.74	10.69
376.204	10.76
376.668	9.51
377.132	10.42
377.596	11.08
378.06	9.95
378.524	10.35
378.987	10.99
379.451	10.95
379.915	10.77
380.378	11.57
380.842	11.04
381.306	10.24
381.769	10.93
382.233	10.01
382.696	11.26
383.16	10.01
383.623	10.16
384.087	12.04
384.55	11.23
385.014	10.46
385.477	11.08
385.94	10.39
386.404	11.54
386.867	11.48
387.33	11.06
387.793	10.92
388.256	10.89
388.72	9.99
389.183	9.91
389.646	10.11
390.109	10.57
390.572	10.14
391.035	10.35
391.498	10.1
391.961	10.12
392.424	10.17
392.887	10.56
393.35	10.29
393.812	9.36
394.275	10.95
394.738	10.37
395.201	10.21
395.664	10.93
396.126	9.36
396.589	10.02
397.052	11.12
397.514	10.72
397.977	9.38
398.439	10.48
398.902	10.12
399.364	10.25
399.827	11.24
400.289	10.08
400.752	8.8
401.214	9.92
401.676	11.11
402.139	9.86
402.601	9.18
403.063	10.61
403.525	10.74
403.988	10.12
404.45	9.43
404.912	9.8
405.374	9.67
405.836	10
406.298	10.23
406.76	9.71
407.222	9.71
407.684	10.62
408.146	9.69
408.608	10
409.07	10.05
409.532	9.86
409.994	10.26
410.456	10.84
410.917	9.98
411.379	9.57
411.841	10.53
412.303	10.66
412.764	9.54
413.226	10.56
413.687	10.14
414.149	10.41
414.611	9.77
415.072	9.66
415.534	10.61
415.995	11.23
416.457	11.2
416.918	11.02
417.379	9.58
417.841	10.5
418.302	10.66
418.763	10.07
419.225	10.73
419.686	11.74
420.147	10.28
420.608	11.72
421.069	12.15
421.53	11.08
421.991	10.72
422.453	10.95
422.914	11.01
423.375	10.84
423.836	11
424.297	12.05
424.757	11.46
425.218	11.81
425.679	10.47
426.14	11.76
426.601	12.1
427.062	11.07
427.522	11.98
427.983	11.22
428.444	10.74
428.904	10.54
429.365	11.3
429.826	12.49
430.286	12.28
430.747	13.43
431.207	12.8
431.668	13.08
432.128	13.02
432.589	12.88
433.049	12.75
433.509	13.21
433.97	13.03
434.43	10.34
434.89	11.16
435.351	15.15
435.811	13.58
436.271	10.72
436.731	11.68
437.191	12.66
437.651	13.56
438.112	12.74
438.572	12.37
439.032	13.02
439.492	12.98
439.952	12.23
440.412	11.93
440.871	13.98
441.331	13.19
441.791	14.22
442.251	14.01
442.711	13
443.171	13.88
443.63	11.89
444.09	13.86
444.55	13.54
445.009	13.59
445.469	13.93
445.929	14.04
446.388	14.24
446.848	14.15
447.307	12.22
447.767	14.71
448.226	13.06
448.686	13.93
449.145	13.09
449.604	13.59
450.064	13.41
450.523	14.24
450.982	13.18
451.442	13.88
451.901	12.16
452.36	12.37
452.819	14.13
453.278	14.22
453.737	13.49
454.197	15.94
454.656	14.42
455.115	14.2
455.574	13.46
456.033	13.87
456.492	14.45
456.95	13.79
457.409	13.26
457.868	15.27
458.327	15.29
458.786	13.28
459.245	13.48
459.703	14.44
460.162	13.8
460.621	13.97
461.079	13.67
461.538	13.21
461.997	14.65
462.455	14.94
462.914	15.21
463.372	13.29
463.831	15.21
464.289	14.78
464.748	16.68
465.206	12.95
465.664	14.29
466.123	15.62
466.581	14.51
467.039	14.14
467.497	14.94
467.956	15
468.414	13.83
468.872	14.66
469.33	15.08
469.788	14.83
470.246	13.31
470.704	14.48
471.162	16.11
471.62	14.74
472.078	14.32
472.536	14.68
472.994	14.14
473.452	14.45
473.91	15.74
474.368	15.18
474.826	14.64
475.283	14.55
475.741	13.9
476.199	15.12
476.656	16.51
477.114	13.77
477.572	13.96
478.029	12.68
478.487	16.2
478.944	14.6
479.402	13.9
479.859	15.54
480.317	15.06
480.774	13.2
481.232	15.83
481.689	14.42
482.146	15.22
482.604	13.99
483.061	12.75
483.518	13.53
483.975	14.78
484.433	15.42
484.89	15.31
485.347	14.4
485.804	15.22
486.261	14.61
486.718	13.37
487.175	15.16
487.632	16.16
488.089	16.08
488.546	13.23
489.003	14.24
489.46	13.24
489.917	14.71
490.373	15.11
490.83	15.01
491.287	13.67
491.744	15.56
492.2	15.45
492.657	13.27
493.114	15.01
493.57	15.03
494.027	14.39
494.484	15.33
494.94	14.66
495.397	14.73
495.853	14.13
496.31	16.46
496.766	15.11
497.222	14.47
497.679	14.69
498.135	14.66
498.591	14.8
499.048	13.31
499.504	15.83
499.96	15.12
500.416	14.44
500.872	12.54
501.329	18.01
501.785	17.37
502.241	13.35
502.697	17.71
503.153	13.98
503.609	13.2
504.065	16.51
504.521	14.65
504.977	16.04
505.432	14.53
505.888	14.3
506.344	15.85
506.8	15.42
507.256	14.78
507.711	15.5
508.167	15.86
508.623	14.77
509.078	13.55
509.534	16.73
509.99	14.63
510.445	15.76
510.901	15.76
511.356	18.47
511.812	14.53
512.267	15.93
512.722	15.28
513.178	14.74
513.633	15.27
514.089	16.69
514.544	16.14
514.999	14.87
515.454	16.1
515.91	15.57
516.365	16.16
516.82	14.49
517.275	15.46
517.73	14.93
518.185	14.05
518.64	15.91
519.095	15.52
519.55	16.14
520.005	16.33
520.46	15.03
520.915	16.32
521.37	15.98
521.825	16.06
522.28	16.45
522.734	15.93
523.189	15.73
523.644	13.6
524.099	14.94
524.553	15.27
525.008	15.04
525.462	16.51
525.917	15.4
526.372	16.55
526.826	15.7
527.281	17.16
527.735	17.32
528.19	14.78
528.644	16.4
529.098	15.53
529.553	15.56
530.007	15.64
530.461	16.56
530.916	16.07
531.37	16.45
531.824	15.75
532.278	18.03
532.732	15.26
533.186	15.98
533.641	17.22
534.095	15.72
534.549	17.11
535.003	14.51
535.457	15.74
535.911	16.34
536.365	16.09
536.818	15.33
537.272	14.33
537.726	16.77
538.18	15.99
538.634	16.92
539.087	16.29
539.541	14.54
539.995	17.17
540.449	16.26
540.902	17.62
541.356	18.21
541.809	16.19
542.263	17.88
542.716	17.33
543.17	15.71
543.623	16.75
544.077	17.51
544.53	17.23
544.984	16.18
545.437	17.6
545.89	16.71
546.344	17.23
546.797	17.12
547.25	17.25
547.703	16.49
548.157	17.65
548.61	16.82
549.063	16.64
549.516	16.44
549.969	18.53
550.422	17.24
550.875	17.05
551.328	17.61
551.781	16.85
552.234	17.57
552.687	16.9
553.14	17.16
553.592	15.96
554.045	16.6
554.498	17.77
554.951	17.56
555.404	17
555.856	17.35
556.309	17.34
556.762	17.67
557.214	17.46
557.667	16.95
558.119	17.93
558.572	17.74
559.024	16.47
559.477	17.69
559.929	17.92
560.382	17.8
560.834	17.77
561.286	17.05
561.739	17.62
562.191	17.09
562.643	18.17
563.095	18.55
563.548	17.97
564	19.26
564.452	16.45
564.904	17.39
565.356	17.65
565.808	17.21
566.26	18.42
566.712	17.98
567.164	17.36
567.616	18.57
568.068	17.91
568.52	17.12
568.972	17.3
569.424	18.76
569.876	17.28
570.327	17.49
570.779	17.18
571.231	16.6
571.682	18.11
572.134	18.09
572.586	17.67
573.037	18.7
573.489	17.88
573.941	17.04
574.392	18.76
574.844	17.57
575.295	17.59
575.746	17.98
576.198	18.91
576.649	17.76
577.101	17.8
577.552	18.46
578.003	18.09
578.454	17.69
578.906	18.7
579.357	18.67
579.808	19.81
580.259	18.34
580.71	17.7
581.161	16.55
581.612	19.16
582.064	17.41
582.515	18.02
582.965	18.18
583.416	18.93
583.867	18.35
584.318	17.7
584.769	18.06
585.22	19.11
585.671	17.64
586.122	19.31
586.572	17.57
587.023	17.69
587.474	18.62
587.924	18.21
588.375	18.81
588.826	18.53
589.276	18.04
589.727	18.4
590.177	18.01
590.628	18.19
591.078	17.96
591.529	18.43
591.979	18.61
592.429	18.19
592.88	18.45
593.33	18.7
593.78	18.14
594.231	18.99
594.681	18.72
595.131	18.04
595.581	18.15
596.031	18.53
596.481	18.81
596.932	18.58
597.382	18.56
597.832	18.12
598.282	17.75
598.732	18.69
599.182	18.59
599.632	18.32
600.081	19.66
600.531	17.87
600.981	19.36
601.431	17.48
601.881	19.37
602.33	18.26
602.78	19.05
603.23	19
603.679	18.71
604.129	18.4
604.579	19.15
605.028	17.4
605.478	18.24
605.927	19.31
606.377	18.19
606.826	18.06
607.276	17.96
607.725	19.72
608.175	18.91
608.624	18.28
609.073	17.69
609.522	18.87
609.972	18.29
610.421	18.75
610.87	18.27
611.319	18.35
611.768	19.16
612.218	19.08
612.667	19.07
613.116	19.51
613.565	19.2
614.014	18.96
614.463	19.1
614.912	18.2
615.361	18.17
615.81	18.87
616.258	19.23
616.707	19.4
617.156	18.21
617.605	19.53
618.054	18.32
618.502	17.6
618.951	18.65
619.4	19.35
619.848	19.13
620.297	18.29
620.745	18.88
621.194	17.96
621.642	19.11
622.091	18.45
622.539	18.79
622.988	19.32
623.436	18.07
623.885	18.76
624.333	18.21
624.781	18.48
625.23	18.5
625.678	19.12
626.126	19.54
626.574	18.23
627.022	18.24
627.471	18.61
627.919	19.53
628.367	18.57
628.815	18.35
629.263	18.1
629.711	18.48
630.159	18.82
630.607	19.19
631.055	18.67
631.503	18.57
631.95	18.16
632.398	19.06
632.846	19.02
633.294	19.08
633.742	19.06
634.189	18.73
634.637	18.9
635.085	18.72
635.532	18.85
635.98	18.88
636.427	19.36
636.875	18.95
637.323	18.75
637.77	18.86
638.217	20.15
638.665	18.34
639.112	19.83
639.56	18.36
640.007	19.31
640.454	19
640.902	18.56
641.349	19.48
641.796	19.67
642.243	19.23
642.69	19.52
643.138	19.23
643.585	20
644.032	19.28
644.479	18.83
644.926	18.23
645.373	18.73
645.82	18.81
646.267	18.91
646.714	19.14
647.161	19.43
647.607	18.84
648.054	19.18
648.501	19.52
648.948	18.75
649.395	19.07
649.841	19.64
650.288	19.11
650.735	19.56
651.181	19.38
651.628	19.2
652.075	18.91
652.521	18.92
652.968	19.69
653.414	19.34
653.861	19.66
654.307	18.58
654.753	19.31
655.2	19.28
655.646	19.12
656.092	19.67
656.539	19.81
656.985	19.99
657.431	18.48
657.877	19.53
658.324	19.03
658.77	19.83
659.216	19.3
659.662	19.03
660.108	18.95
660.554	19.42
661	19.25
661.446	20
661.892	19.79
662.338	19.78
662.784	19.8
663.23	19.93
663.675	20.22
664.121	19.74
664.567	19.02
665.013	19.65
665.458	19.32
665.904	19.71
666.35	18.91
666.795	19.37
667.241	19.91
667.687	19.2
668.132	19.74
668.578	19.89
669.023	19.75
669.469	19.39
669.914	19.38
670.359	19.68
670.805	20.34
671.25	19.87
671.695	19.69
672.141	20.1
672.586	19.08
673.031	19.48
673.476	19.39
673.922	19.27
674.367	20.07
674.812	19.75
675.257	19.94
675.702	19.99
676.147	20.02
676.592	19.59
677.037	19.65
677.482	19.69
677.927	19.61
678.372	19.39
678.817	20.17
679.261	19.73
679.706	19.72
680.151	19.9
680.596	20.36
681.04	20.2
681.485	19.97
681.93	20.63
682.374	19.63
682.819	19.54
683.264	20.1
683.708	20.25
684.153	20.04
684.597	18.99
685.042	19.48
685.486	19.93
685.93	19.79
686.375	19.59
686.819	20.16
687.263	19.75
687.708	20.25
688.152	20.35
688.596	20.17
689.04	19.67
689.485	19.95
689.929	19.94
690.373	20.08
690.817	19.26
691.261	19.79
691.705	19.7
692.149	19.92
692.593	19.78
693.037	20.31
693.481	20.09
693.925	19.85
694.369	20
694.812	19.72
695.256	19.38
695.7	19
696.144	19.85
696.587	19.73
697.031	20.03
697.475	19.88
697.918	19.78
698.362	20.03
698.806	20.05
699.249	20.1
699.693	20.53
700.136	20.53
700.58	20.21
701.023	20.56
701.466	20.36
701.91	20.21
702.353	19.29
702.796	20.5
703.24	19.8
703.683	20.04
704.126	20.88
704.569	20.03
705.013	20.27
705.456	19.84
705.899	20.12
706.342	20.58
706.785	20.1
707.228	20.03
707.671	20.25
708.114	20.23
708.557	20.5
709	19.43
709.443	20.09
709.886	19.94
710.328	20.2
710.771	20.27
711.214	20.1
711.657	19.89
712.099	20.03
712.542	19.75
712.985	20.13
713.427	20.01
713.87	20.27
714.313	21.06
714.755	20.2
715.198	19.95
715.64	19.64
716.083	20.46
716.525	19.69
716.967	19.72
717.41	19.73
717.852	20.62
718.295	20.41
718.737	20.33
719.179	20.88
719.621	19.9
720.063	19.5
720.506	20.26
720.948	20.89
721.39	20.31
721.832	19.9
722.274	21
722.716	20.33
723.158	19.16
723.6	19.63
724.042	19.64
724.484	20.03
724.926	20.78
725.368	19.3
725.81	19.94
726.251	20.31
726.693	19.57
727.135	20.56
727.577	20.21
728.018	20.26
728.46	20.55
728.902	20.37
729.343	19.87
729.785	19.44
730.226	19.87
730.668	19.66
731.109	20.66
731.551	20.21
731.992	20.14
732.434	20.43
732.875	20.12
733.316	20.21
733.758	19.99
734.199	20.54
734.64	20.91
735.081	20.16
735.523	19.84
735.964	20.02
736.405	20.01
736.846	20.67
737.287	20.46
737.728	20.22
738.169	20.28
738.61	20.4
739.051	20.46
739.492	19.29
739.933	21
740.374	20.04
740.815	20.1
741.256	20.01
741.696	20.77
742.137	19.75
742.578	20.15
743.019	20.15
743.459	20.29
743.9	20.48
744.341	20.23
744.781	20.27
745.222	19.59
745.662	19.99
746.103	20.09
746.543	20.24
746.984	20.31
747.424	19.84
747.865	20.37
748.305	19.73
748.745	20.23
749.186	20.48
749.626	20
750.066	19.54
750.506	20.61
750.947	20.15
751.387	20.31
751.827	20.42
752.267	20.08
752.707	20.47
753.147	20.14
753.587	19.99
754.027	20.55
754.467	20.2
754.907	20.47
755.347	20.35
755.787	20.55
756.227	20.14
756.667	20.26
757.107	20.1
757.546	20.73
757.986	19.57
758.426	20.64
758.865	20.13
759.305	20.82
759.745	20.07
760.184	19.96
760.624	20.63
761.063	20.7
761.503	20.17
761.943	19.85
762.382	19.98
762.821	19.7
763.261	19.89
763.7	20.54
764.14	19.55
764.579	19.67
765.018	20.47
765.457	19.95
765.897	20.35
766.336	20.55
766.775	20.43
767.214	20.28
767.653	20.49
768.092	20.24
768.531	20.6
768.97	19.77
769.409	20.13
769.848	19.99
770.287	20.63
770.726	21.42
771.165	19.96
771.604	20.19
772.043	20.71
772.482	20.75
772.92	20.37
773.359	20.26
773.798	20.04
774.237	20.78
774.675	20.79
775.114	20.55
775.553	20.6
775.991	20.6
776.43	20.49
776.868	20.17
777.307	19.86
777.745	20.84
778.184	20.15
778.622	20.81
779.06	20.42
779.499	20.69
779.937	20.82
780.375	20.67
780.814	20.51
781.252	20.36
781.69	20.12
782.128	20.7
782.566	20.19
783.004	20.52
783.443	20.94
783.881	20.65
784.319	20
784.757	20.29
785.195	20.32
785.633	21.24
786.071	20.16
786.508	21.01
786.946	20.52
787.384	20.75
787.822	21.1
788.26	20.7
788.697	20.46
789.135	20.61
789.573	20.78
790.011	20.29
790.448	20.37
790.886	20.55
791.323	20.96
791.761	19.98
792.198	20.05
792.636	20.62
793.073	20.48
793.511	20.94
793.948	20.9
794.386	20.4
794.823	20.13
795.26	20.86
795.698	20.66
796.135	20.48
796.572	20.78
797.009	20.34
797.446	20.74
797.884	20.12
798.321	20.29
798.758	20.96
799.195	20.2
799.632	20.3
800.069	20.24
800.506	20.23
800.943	20.68
801.38	20.57
801.817	20.72
802.254	20.41
802.69	20.29
803.127	20.63
803.564	20.75
804.001	20.69
804.438	20.97
804.874	20.7
805.311	20.38
805.748	20
806.184	20.52
806.621	20.81
807.057	20.16
807.494	20.76
807.93	20.5
808.367	20.65
808.803	20.21
809.24	20.54
809.676	20.83
810.112	20.33
810.549	20.3
810.985	20.73
811.421	20.34
811.857	20.58
812.294	20.05
812.73	20.49
813.166	20.47
813.602	20.41
814.038	20.14
814.474	20.07
814.91	20.46
815.346	20.8
815.782	20.4
816.218	20.69
816.654	20.26
817.09	20.07
817.526	20.45
817.962	20.61
818.398	20.63
818.833	20.31
819.269	20.48
819.705	20.14
820.141	20.31
820.576	20.25
821.012	20.63
821.447	20.79
821.883	20.55
822.319	20.5
822.754	20.7
823.19	20.54
823.625	20.35
824.061	20.24
824.496	20.29
824.931	20.8
825.367	21.01
825.802	19.94
826.237	20.8
826.673	20.62
827.108	20.4
827.543	20.56
827.978	20.56
828.413	20.93
828.849	20.55
829.284	20.68
829.719	20.33
830.154	20.72
830.589	20.66
831.024	20.14
831.459	20.6
831.894	20.51
832.329	21.01
832.763	20.44
833.198	20.48
833.633	20.41
834.068	20.43
834.503	20.71
834.937	20.43
835.372	20.51
835.807	20.88
836.241	20.47
836.676	20.84
837.111	20.78
837.545	20.25
837.98	20.73
838.414	20.37
838.849	20.55
839.283	20.52
839.717	20.38
840.152	21.02
840.586	20.68
841.021	20.45
841.455	20.36
841.889	20.81
842.323	20.19
842.758	20.41
843.192	20.3
843.626	20.6
844.06	20.75
844.494	20.64
844.928	20.96
845.362	20.38
845.796	21.23
846.23	20.71
846.664	20.66
847.098	20.75
847.532	20.46
847.966	20.19
848.4	20.65
848.834	20.45
849.267	20.8
849.701	20.45
850.135	21
850.569	20.73
851.002	20.81
851.436	20.69
851.87	20.79
852.303	20.47
852.737	20.67
853.17	20.96
853.604	20.78
854.037	20.67
854.471	20.44
854.904	20.77
855.337	20.24
855.771	20.25
856.204	20.67
856.637	20.52
857.071	20.49
857.504	20.77
857.937	20.61
858.37	20.59
858.804	20.55
859.237	21.31
859.67	20.63
860.103	20.61
860.536	20.8
860.969	20.95
861.402	20.61
861.835	20.81
862.268	20.33
862.701	20.79
863.134	20.83
863.566	20.73
863.999	20.49
864.432	20.74
864.865	20.93
865.298	20.37
865.73	20.96
866.163	20.8
866.596	20.88
867.028	21.24
867.461	20.76
867.893	20.82
868.326	20.52
868.758	20.35
869.191	20.89
869.623	20.29
870.056	20.66
870.488	20.67
870.92	20.79
871.353	20.49
871.785	21.12
872.217	20.43
872.65	21.01
873.082	20.82
873.514	20.82
873.946	20.25
874.378	20.38
874.81	20.7
875.243	20.75
875.675	20.66
876.107	20.77
876.539	20.6
876.971	20.46
877.403	20.35
877.834	20.25
878.266	20.59
878.698	20.76
879.13	20.32
879.562	20.32
879.994	20.65
880.425	20.6
880.857	20.75
881.289	21.07
881.72	20.85
882.152	20.57
882.584	20.66
883.015	20.76
883.447	20.61
883.878	20.69
884.31	20.51
884.741	20.88
885.173	20.49
885.604	21.15
886.035	20.71
886.467	20.73
886.898	20.57
887.329	20.28
887.76	20.86
888.192	20.69
888.623	20.99
889.054	20.41
889.485	20.5
889.916	20.59
890.347	20.65
890.778	20.46
891.209	20.5
891.64	20.41
892.071	20.72
892.502	20.49
892.933	20.57
893.364	20.74
893.795	20.71
894.226	20.58
894.657	20.43
895.087	20.26
895.518	20.71
895.949	20.58
896.38	20.45
896.81	20.62
897.241	20.98
897.671	20.73
898.102	20.68
898.533	20.9
898.963	21.03
899.394	20.34
899.824	20.85
900.254	20.6
900.685	20.93
901.115	20.54
901.546	20.66
901.976	21.11
902.406	20.7
902.836	20.78
903.267	20.97
903.697	20.76
904.127	20.5
904.557	20.87
904.987	20.71
905.417	20.82
905.847	20.74
906.277	20.69
906.707	20.67
907.137	20.31
907.567	20.5
907.997	21.04
908.427	20.98
908.857	20.5
909.287	20.54
909.717	20.56
910.146	21.07
910.576	20.99
911.006	20.88
911.436	20.74
911.865	20.69
912.295	20.61
912.724	20.55
913.154	20.42
913.584	20.53
914.013	20.84
914.443	20.77
914.872	20.54
915.302	20.76
915.731	20.35
916.16	20.58
916.59	20.7
917.019	20.87
917.448	20.59
917.878	20.75
918.307	20.78
918.736	20.91
919.165	20.75
919.594	20.62
920.023	20.74
920.452	20.52
920.882	20.71
921.311	20.72
921.74	20.88
922.169	20.55
922.597	20.89
923.026	20.45
923.455	20.43
923.884	21.15
924.313	20.75
924.742	20.34
925.171	20.67
925.599	20.86
926.028	20.46
926.457	20.77
926.885	20.56
927.314	20.74
927.743	20.81
928.171	20.67
928.6	20.77
929.028	20.75
929.457	20.77
929.885	20.59
930.314	20.66
930.742	20.43
931.17	20.49
931.599	20.54
932.027	20.24
932.455	20.69
932.884	20.43
933.312	20.6
933.74	20.85
934.168	20.99
934.596	20.59
935.025	20.75
935.453	21.05
935.881	20.64
936.309	20.86
936.737	20.88
937.165	20.69
937.593	21.28
938.021	20.59
938.449	20.82
938.876	20.87
939.304	20.29
939.732	20.22
940.16	20.36
940.588	20.59
941.015	20.67
941.443	20.5
941.871	20.76
942.298	20.41
942.726	20.86
943.154	19.94
943.581	20.75
944.009	20.09
944.436	20.51
944.864	20.24
945.291	20.31
945.718	20.31
946.146	20.05
946.573	20.59
947.001	20.15
947.428	20.32
947.855	21.09
948.282	20.09
948.71	20.25
949.137	20.5
949.564	20.26
949.991	20.69
950.418	20.37
950.845	20.29
951.272	20.22
951.699	19.84
952.126	20.2
952.553	20.69
952.98	20.34
953.407	19.96
953.834	20.2
954.261	20.29
954.688	20.78
955.114	20.24
955.541	20.66
955.968	20.45
956.395	19.98
956.821	20.49
957.248	20.38
957.674	20.11
958.101	20.31
958.528	20.33
958.954	20.48
959.381	20.32
959.807	20.39
960.234	20.72
960.66	20.27
961.086	20.48
961.513	20.3
961.939	20.55
962.365	20.39
962.792	20.2
963.218	20.43
963.644	20.33
964.07	20.64
964.496	20.65
964.923	20.41
965.349	20.63
965.775	20.31
966.201	20.55
966.627	20.66
967.053	20.45
967.479	20.26
967.905	20.38
968.331	20.42
968.756	20.59
969.182	20.28
969.608	20.26
970.034	20.37
970.46	20.33
970.885	20.51
971.311	20.41
971.737	20.29
972.162	20.65
972.588	20.6
973.014	20.35
973.439	20.16
973.865	20.35
974.29	20.34
974.716	20.54
975.141	20.53
975.567	20.51
975.992	20.56
976.417	20.45
976.843	20.38
977.268	20.19
977.693	20.95
978.119	20.3
978.544	20.57
978.969	20.94
979.394	20.58
979.819	20.65
980.244	20.47
980.669	20.38
981.095	20.38
981.52	20.73
981.945	20.5
982.369	20.44
982.794	20.61
983.219	20.89
983.644	20.53
984.069	20.51
984.494	20.81
984.919	20.67
985.343	20.41
985.768	20.65
986.193	20.48
986.618	20.44
987.042	20.7
987.467	20.4
987.891	20.59
988.316	20.5
988.741	20.6
989.165	20.31
989.59	20.72
990.014	20.37
990.438	20.53
990.863	20.64
991.287	20.54
991.712	20.56
992.136	20.29
992.56	20.53
992.984	20.57
993.409	20.66
993.833	20.62
994.257	20.44
994.681	20.5
995.105	20.45
995.529	20.61
995.953	20.26
996.377	20.39
996.801	20.76
997.225	20.41
997.649	20.73
998.073	20.4
998.497	20.62
998.921	20.64
999.345	20.46
999.769	20.41
1000.192	20.54
1000.616	20.56
1001.04	20.59
1001.464	20.58
1001.887	20.75
1002.311	20.59
1002.734	20.43
1003.158	20.51
1003.582	20.48
1004.005	20.35
1004.429	20.64
1004.852	20.44
1005.275	20.58
1005.699	20.17
1006.122	20.7
1006.546	20.32
1006.969	20.7
1007.392	20.41
1007.815	20.56
1008.239	20.59
1008.662	20.53
1009.085	20.74
1009.508	20.36
1009.931	20.59
1010.354	20.43
1010.778	20.52
1011.201	20.54
1011.624	20.92
1012.047	20.56
1012.469	20.36
1012.892	20.48
1013.315	20.23
1013.738	20.56
1014.161	20.47
1014.584	20.47
1015.007	20.71
1015.429	20.44
1015.852	20.53
1016.275	20.52
1016.697	20.44
1017.12	20.59
1017.543	20.41
1017.965	20.43
1018.388	20.7
1018.81	20.54
1019.233	20.45
1019.655	20.71
1020.078	20.93
1020.5	20.5
1020.922	20.5
1021.345	20.56
1021.767	20.78
1022.189	20.39
1022.612	20.88
1023.034	20.5
1023.456	20.53
1023.878	20.13
1024.301	20.98
1024.723	20.43
1025.145	20.86
1025.567	20.71
1025.989	20.64
1026.411	20.23
1026.833	20.68
1027.255	20.6
1027.677	20.7
1028.099	20.29
1028.52	20.52
1028.942	20.74
1029.364	20.07
1029.786	20.58
1030.208	20.65
1030.629	20.96
1031.051	20.6
1031.473	20.63
1031.894	20.7
1032.316	20.35
1032.738	20.54
1033.159	20.7
1033.581	20.78
1034.002	20.58
1034.424	20.62
1034.845	20.42
1035.267	20.46
1035.688	20.17
1036.109	20.74
1036.531	20.27
1036.952	20.51
1037.373	20.35
1037.794	20.48
1038.216	20.8
1038.637	20.95
1039.058	20.49
1039.479	20.17
1039.9	20.45
1040.321	20.14
1040.742	20.63
1041.163	20.25
1041.584	20.8
1042.005	20.28
1042.426	20.5
1042.847	20.27
1043.268	20.25
1043.689	20.3
1044.11	20.59
1044.53	20.68
1044.951	20.85
1045.372	20.59
1045.793	20.38
1046.213	20.54
1046.634	21.37
1047.055	20.21
1047.475	20.49
1047.896	20.28
1048.316	20.43
1048.737	20.24
1049.157	20.33
1049.578	20.16
1049.998	19.78
1050.419	21.05
1050.839	20.44
1051.259	20.3
1051.68	20.38
1052.1	20.57
1052.52	20.61
1052.94	20.44
1053.361	20.42
1053.781	20.01
1054.201	21.34
1054.621	20.59
1055.041	20.43
1055.461	20.61
1055.881	20.53
1056.301	20.18
1056.721	20.49
1057.141	20.22
1057.561	20.7
1057.981	20.05
1058.401	20.66
1058.82	20.25
1059.24	20.53
1059.66	20.35
1060.08	20.48
1060.499	20.18
1060.919	20.49
1061.339	20.69
1061.758	20.88
1062.178	20.51
1062.598	20.5
1063.017	20.03
1063.437	20.08
1063.856	20.41
1064.276	20.48
1064.695	20.29
1065.114	20.22
1065.534	20.74
1065.953	19.99
1066.372	20.91
1066.792	20.61
1067.211	20.48
1067.63	20.29
1068.049	20.76
1068.469	20.7
1068.888	20.35
1069.307	20.3
1069.726	20.42
1070.145	21.42
1070.564	20.27
1070.983	20.63
1071.402	20.85
1071.821	20.8
1072.24	21.11
1072.659	20.58
1073.078	20.13
1073.496	20.07
1073.915	20.5
1074.334	20.34
1074.753	20.53
1075.171	21.65
1075.59	20.73
1076.009	20.3
1076.427	20.35
1076.846	20.25
1077.265	19.72
1077.683	20.16
1078.102	21
1078.52	19.96
1078.939	20.33
1079.357	20.03
1079.776	20.58
1080.194	20.65
1080.612	20.49
1081.031	20.87
1081.449	20.18
1081.867	18.96
1082.285	21.24
1082.704	20.37
1083.122	20.13
1083.54	20.07
1083.958	20.26
1084.376	20.06
1084.794	20.1
1085.212	20.25
1085.63	20.5
1086.048	20.7
1086.466	20.5
1086.884	19.8
1087.302	19.15
1087.72	20.22
1088.138	20.57
1088.555	20.55
1088.973	20.81
1089.391	20.63
1089.809	20.61
1090.226	20.28
1090.644	21.67
1091.062	20.48
1091.479	19.94
1091.897	20.51
1092.314	19.46
1092.732	20.58
1093.15	20.93
1093.567	20.06
1093.984	20.8
1094.402	20.65
1094.819	18.83
1095.237	19.37
1095.654	20.76
1096.071	18.86
1096.488	20.28
1096.906	20.89
1097.323	20.77
1097.74	19.55
1098.157	19.63
1098.574	19.3
1098.991	21.38
1099.409	19.91
1099.826	19.15
1100.243	19.81
1100.66	22.37
1101.077	19.04
1101.494	19.25
1101.91	20.73
1102.327	21.23
1102.744	20.24
1103.161	18.69
1103.578	19.07
1103.994	19.81
1104.411	20.63
1104.828	20.93
1105.245	20.47
1105.661	19.32
1106.078	19.96
1106.494	21.08
1106.911	21.22
1107.328	20.1
1107.744	21.34
1108.161	22.1
1108.577	18.86
1108.993	21.72
1109.41	20.15
1109.826	19.91
1110.242	22.46
1110.659	20.41
1111.075	20.17
1111.491	20.54
1111.908	19.88
1112.324	20.09
1112.74	14.47
1113.156	17.21
1113.572	19.31
1113.988	20.93
1114.404	19.29
1114.82	19.92
1115.236	17.47
1115.652	18.49
1116.068	19.51
1116.484	17.9
1116.9	21.06
1117.316	20.25
1117.732	-62.5
1118.147	68.75
1118.563	50
1118.979	-50
