Data from JCR0010_WhiteVentral_Reflection_00003.txt Node
Date: Thu Jul 23 13:03:37 ACST 2020
User: Stacey Dix
Spectrometer: MAYP113282
Scans to average: 1
Trigger mode: 0
Integration Time (sec): 1.000000E-1
Electric dark correction enabled: true
Boxcar width: 0
XAxis mode: Wavelengths
Number of Pixels in Spectrum: 2068
>>>>>Begin Spectral Data<<<<<
198.791	-115.62
199.266	-67.65
199.74	15.63
200.215	43.75
200.69	20.25
201.164	27.76
201.639	15.62
202.114	35.57
202.588	24.26
203.063	30.66
203.537	32.79
204.012	29.87
204.486	30.84
204.961	21.13
205.435	24.11
205.909	30.13
206.384	31.7
206.858	21.23
207.332	27.27
207.807	27.4
208.281	32.15
208.755	22.97
209.229	23.68
209.703	15.58
210.177	23.05
210.651	18.61
211.126	27.77
211.6	22.77
212.074	20.88
212.548	18.71
213.021	26.99
213.495	13.36
213.969	26.31
214.443	19.27
214.917	21.73
215.391	22.19
215.864	17.24
216.338	19
216.812	19.13
217.286	17.86
217.759	19.62
218.233	16.08
218.706	19.22
219.18	20.06
219.654	17.09
220.127	19.71
220.6	11.92
221.074	15.22
221.547	14.73
222.021	18.08
222.494	11.89
222.967	14.92
223.441	14.16
223.914	15.16
224.387	14.9
224.86	11.46
225.334	13.66
225.807	14.16
226.28	13.22
226.753	12.16
227.226	13.12
227.699	9.59
228.172	10.86
228.645	10.98
229.118	9.6
229.591	10.07
230.064	9.36
230.537	9.69
231.01	10.04
231.482	10.05
231.955	11.16
232.428	9.82
232.901	9.52
233.373	9.45
233.846	9.33
234.319	8.29
234.791	9.43
235.264	8.58
235.736	7.93
236.209	8.21
236.681	8.72
237.154	8.25
237.626	7.67
238.099	8.68
238.571	9.01
239.044	8.37
239.516	9.04
239.988	7.37
240.46	8.09
240.933	8.11
241.405	8.98
241.877	7.16
242.349	7.43
242.821	7.58
243.293	7.84
243.765	7.68
244.237	7.36
244.71	7.76
245.181	7.42
245.653	8.35
246.125	8.53
246.597	8.46
247.069	7.6
247.541	7.72
248.013	7.28
248.485	7.57
248.956	7.7
249.428	7.82
249.9	7.46
250.371	7.78
250.843	7.38
251.315	7.07
251.786	7.15
252.258	7.27
252.729	7.52
253.201	7.08
253.672	7.19
254.144	6.54
254.615	6.97
255.086	6.72
255.558	6.78
256.029	7.1
256.5	7.35
256.972	6.86
257.443	6.9
257.914	6.82
258.385	7.16
258.856	6.51
259.327	7.2
259.799	6.48
260.27	7
260.741	7.17
261.212	6.82
261.683	6.97
262.154	6.58
262.624	6.33
263.095	6.9
263.566	7.08
264.037	6.65
264.508	6.51
264.979	6.84
265.449	6.83
265.92	6.48
266.391	6.9
266.861	6.92
267.332	6.45
267.803	6.76
268.273	6.93
268.744	6.93
269.214	7.02
269.685	6.92
270.155	6.76
270.626	7.03
271.096	6.15
271.566	6.6
272.037	7.27
272.507	6.81
272.977	6.61
273.448	7.31
273.918	7.02
274.388	6.61
274.858	6.96
275.328	6.76
275.798	7.23
276.268	6.73
276.738	6.99
277.208	7.01
277.678	7.04
278.148	6.61
278.618	7.2
279.088	6.74
279.558	6.46
280.028	7.19
280.498	6.2
280.968	6.62
281.437	6.76
281.907	7.13
282.377	6.54
282.847	6.43
283.316	6.73
283.786	6.94
284.255	6.59
284.725	6.22
285.194	6.2
285.664	6.53
286.133	6.82
286.603	6.61
287.072	6.92
287.542	6.46
288.011	6.97
288.48	6.44
288.95	6.54
289.419	6.52
289.888	6.83
290.357	6.64
290.827	6.74
291.296	6.99
291.765	6.96
292.234	6.77
292.703	6.82
293.172	6.84
293.641	6.12
294.11	6.24
294.579	6.54
295.048	6.99
295.517	6.68
295.986	7.24
296.455	6.79
296.923	6.91
297.392	7.59
297.861	6.48
298.33	6.54
298.798	6.81
299.267	6.98
299.736	7
300.204	6.61
300.673	6.83
301.141	7.13
301.61	6.96
302.079	7.14
302.547	6.82
303.015	6.91
303.484	7.1
303.952	7.12
304.421	7.4
304.889	7.38
305.357	7.3
305.825	7.1
306.294	6.78
306.762	7.08
307.23	7.24
307.698	7.12
308.166	6.73
308.634	7.78
309.103	6.65
309.571	7.12
310.039	7.34
310.507	6.73
310.975	7.07
311.442	7.26
311.91	6.73
312.378	7.34
312.846	7.4
313.314	7.42
313.782	7.31
314.249	7.71
314.717	7.24
315.185	7.32
315.652	7.43
316.12	7.82
316.588	7.41
317.055	7.56
317.523	7.42
317.99	7.24
318.458	7.84
318.925	7.54
319.393	7.7
319.86	7.18
320.328	7.22
320.795	7.63
321.262	7.71
321.73	7.81
322.197	7.23
322.664	7.66
323.131	8.01
323.598	7.94
324.066	8.82
324.533	8.52
325	9.04
325.467	9.07
325.934	9.5
326.401	9.81
326.868	9.83
327.335	9.81
327.802	9.96
328.269	10.22
328.735	10.89
329.202	11.27
329.669	11.24
330.136	12.23
330.603	12.19
331.069	12.22
331.536	12.55
332.003	12.49
332.469	12.68
332.936	13
333.402	12.74
333.869	13.18
334.336	13.07
334.802	13.26
335.268	13.54
335.735	13.36
336.201	13.88
336.668	13.93
337.134	14.22
337.6	14.07
338.067	13.53
338.533	13.23
338.999	13.45
339.465	14.23
339.931	13.75
340.398	13.98
340.864	14.12
341.33	13.38
341.796	13.37
342.262	13.87
342.728	14.41
343.194	14.07
343.66	14.55
344.126	13.72
344.592	14.06
345.057	13.49
345.523	13.86
345.989	13.8
346.455	14.09
346.921	13.16
347.386	13.64
347.852	13.73
348.318	13.78
348.783	14.36
349.249	13.92
349.714	14.17
350.18	13.85
350.645	14.19
351.111	13.22
351.576	14.47
352.042	13.85
352.507	13
352.973	13.77
353.438	13.96
353.903	14.39
354.369	14.6
354.834	14.58
355.299	14.37
355.764	13.93
356.229	14.28
356.695	13.18
357.16	13.38
357.625	13.19
358.09	14.05
358.555	13.71
359.02	15.1
359.485	13.22
359.95	14.14
360.415	14.3
360.879	15.12
361.344	14.64
361.809	13.78
362.274	14.36
362.739	14.68
363.203	14.47
363.668	14.46
364.133	14.32
364.597	14.3
365.062	14.48
365.527	13.98
365.991	14.72
366.456	14.51
366.92	14.35
367.385	14.82
367.849	14.93
368.314	14.02
368.778	15.52
369.242	14.1
369.707	14.91
370.171	15.02
370.635	14.56
371.1	14.86
371.564	14.75
372.028	15.53
372.492	14.66
372.956	14.46
373.42	15.26
373.884	15.36
374.348	14.35
374.812	14.5
375.276	14.93
375.74	15.87
376.204	15.08
376.668	15.52
377.132	15.43
377.596	15.23
378.06	14.53
378.524	14.9
378.987	15.84
379.451	15.65
379.915	15.29
380.378	15.22
380.842	16.34
381.306	16.18
381.769	14.86
382.233	15.73
382.696	15.14
383.16	16.54
383.623	15.96
384.087	15.7
384.55	16.31
385.014	15.56
385.477	15.66
385.94	16.06
386.404	16.68
386.867	15.56
387.33	15.96
387.793	16.38
388.256	16.36
388.72	15.87
389.183	15.96
389.646	16.46
390.109	16.74
390.572	16.66
391.035	15.48
391.498	16.35
391.961	16.86
392.424	16.5
392.887	16.39
393.35	16.34
393.812	16.22
394.275	16.05
394.738	16.89
395.201	16.96
395.664	16.47
396.126	16.93
396.589	17.12
397.052	16.54
397.514	16.8
397.977	15.92
398.439	16.76
398.902	16.96
399.364	15.69
399.827	16.64
400.289	17.08
400.752	16.67
401.214	17.22
401.676	16.78
402.139	16.79
402.601	17.11
403.063	17.18
403.525	16.7
403.988	16.74
404.45	17.26
404.912	16.9
405.374	16.54
405.836	17.48
406.298	17.74
406.76	17.37
407.222	17.14
407.684	16.5
408.146	16.97
408.608	16.48
409.07	16.83
409.532	17.49
409.994	16.31
410.456	17.73
410.917	17.64
411.379	17
411.841	16.76
412.303	16.89
412.764	17.82
413.226	17.09
413.687	17.66
414.149	17.64
414.611	16.97
415.072	17.35
415.534	17.63
415.995	17.24
416.457	17.45
416.918	18.31
417.379	17.58
417.841	18.11
418.302	17.04
418.763	18.11
419.225	17.58
419.686	17.7
420.147	17.34
420.608	18.88
421.069	17.86
421.53	17.85
421.991	18.61
422.453	18.11
422.914	17.62
423.375	18.47
423.836	18.72
424.297	18.33
424.757	17.16
425.218	18.58
425.679	18.1
426.14	18.34
426.601	17.91
427.062	18.24
427.522	18.28
427.983	18.6
428.444	18.92
428.904	18.2
429.365	18.67
429.826	20.07
430.286	18.97
430.747	18.76
431.207	18.23
431.668	19.08
432.128	18.57
432.589	18.7
433.049	19.25
433.509	19.1
433.97	17.98
434.43	19.39
434.89	17.98
435.351	18.28
435.811	19.35
436.271	18.73
436.731	18.21
437.191	18.61
437.651	18.86
438.112	19.67
438.572	20.53
439.032	18.21
439.492	19.53
439.952	18.59
440.412	19.86
440.871	20.17
441.331	18.09
441.791	19.14
442.251	18.75
442.711	18.76
443.171	18.65
443.63	18.94
444.09	18.27
444.55	18.64
445.009	19.53
445.469	19.12
445.929	19.77
446.388	19.68
446.848	19.41
447.307	19.28
447.767	19.38
448.226	19.54
448.686	18.99
449.145	20.1
449.604	19.58
450.064	19.51
450.523	19.99
450.982	19.62
451.442	18.2
451.901	20.25
452.36	20.22
452.819	18.88
453.278	19.2
453.737	20.2
454.197	19.3
454.656	19.39
455.115	19.97
455.574	19.52
456.033	20.21
456.492	19.79
456.95	20.22
457.409	19.8
457.868	19.25
458.327	20.35
458.786	21.19
459.245	18.94
459.703	20.08
460.162	19.55
460.621	19.98
461.079	20.58
461.538	20.51
461.997	20.73
462.455	19.79
462.914	20.52
463.372	20.72
463.831	19.44
464.289	20.5
464.748	20.62
465.206	20.07
465.664	21.09
466.123	20.35
466.581	20.04
467.039	21.21
467.497	21.26
467.956	19.48
468.414	21.67
468.872	21.1
469.33	21.43
469.788	19.97
470.246	20.05
470.704	20.81
471.162	19.49
471.62	19.98
472.078	21.41
472.536	21.56
472.994	19.84
473.452	21.29
473.91	20.64
474.368	20.95
474.826	20.24
475.283	20.57
475.741	21.03
476.199	21.3
476.656	22
477.114	19.49
477.572	20.41
478.029	22.14
478.487	20.67
478.944	21.29
479.402	22.03
479.859	20.46
480.317	20.64
480.774	20.92
481.232	22.02
481.689	21.82
482.146	20.57
482.604	21
483.061	21.41
483.518	19.9
483.975	21.28
484.433	21.23
484.89	21.52
485.347	21.47
485.804	20.86
486.261	21.78
486.718	20.81
487.175	21.62
487.632	20.95
488.089	22.13
488.546	21.86
489.003	21.13
489.46	21.22
489.917	21.62
490.373	21.24
490.83	21.63
491.287	21.97
491.744	21.68
492.2	21.54
492.657	21.54
493.114	21.41
493.57	21.28
494.027	20.4
494.484	21.48
494.94	20.59
495.397	21.06
495.853	21.08
496.31	21.97
496.766	21.4
497.222	21.52
497.679	21.58
498.135	21.75
498.591	21.98
499.048	21.18
499.504	21.69
499.96	21.71
500.416	20.68
500.872	20.86
501.329	22.48
501.785	21.63
502.241	22.25
502.697	22.91
503.153	22.15
503.609	22.73
504.065	20.55
504.521	22.41
504.977	21.82
505.432	20.59
505.888	22.68
506.344	21.29
506.8	21.55
507.256	21.24
507.711	21.5
508.167	21.33
508.623	21.41
509.078	22.29
509.534	21.99
509.99	21.57
510.445	21.37
510.901	21.84
511.356	20.81
511.812	21.43
512.267	21.21
512.722	21.35
513.178	21.74
513.633	21.57
514.089	21.78
514.544	22.23
514.999	21.04
515.454	22.16
515.91	21.14
516.365	22.76
516.82	22.08
517.275	22.93
517.73	21.94
518.185	21.6
518.64	21.83
519.095	21.65
519.55	21.12
520.005	21.65
520.46	21.38
520.915	22.1
521.37	21.88
521.825	21.71
522.28	21.28
522.734	22.52
523.189	22
523.644	22.15
524.099	22.79
524.553	22.56
525.008	22.06
525.462	22.06
525.917	22.28
526.372	21.6
526.826	22.65
527.281	22.23
527.735	22.81
528.19	22.18
528.644	22.22
529.098	22.65
529.553	23.07
530.007	21.62
530.461	22.3
530.916	23.01
531.37	22.84
531.824	22.53
532.278	22.23
532.732	23.23
533.186	22.35
533.641	22.74
534.095	22.57
534.549	22.73
535.003	22.65
535.457	22.48
535.911	23.72
536.365	21.96
536.818	21.64
537.272	22.71
537.726	22.27
538.18	23.8
538.634	23.63
539.087	22.91
539.541	22.92
539.995	22.04
540.449	23.28
540.902	23.16
541.356	22.63
541.809	23.52
542.263	23.41
542.716	22.86
543.17	23.35
543.623	23.7
544.077	23.3
544.53	22.79
544.984	23.3
545.437	22.5
545.89	23.34
546.344	23.87
546.797	22.77
547.25	23.34
547.703	23.03
548.157	23.17
548.61	23.41
549.063	22.35
549.516	23.6
549.969	22.48
550.422	23.3
550.875	23.14
551.328	23.81
551.781	23.03
552.234	23.67
552.687	22.82
553.14	24.33
553.592	23.54
554.045	23.94
554.498	23.65
554.951	23.8
555.404	23.03
555.856	23.07
556.309	22.93
556.762	23.96
557.214	24
557.667	23.58
558.119	23.01
558.572	23.99
559.024	22.95
559.477	24
559.929	23.61
560.382	23.54
560.834	23.39
561.286	23.53
561.739	24.4
562.191	22.77
562.643	23.57
563.095	23.54
563.548	23.41
564	24.1
564.452	23.75
564.904	23.57
565.356	23.49
565.808	24.05
566.26	23.86
566.712	23.84
567.164	24.4
567.616	23.65
568.068	23.72
568.52	23.75
568.972	23.36
569.424	23.43
569.876	24.35
570.327	23.31
570.779	23.97
571.231	23.36
571.682	23.29
572.134	23.99
572.586	23.3
573.037	22.37
573.489	23.1
573.941	23.3
574.392	23.33
574.844	23.25
575.295	24.08
575.746	23.55
576.198	23.97
576.649	22.99
577.101	23.31
577.552	23.54
578.003	23.48
578.454	23.42
578.906	24.18
579.357	24.39
579.808	24.13
580.259	23.54
580.71	23.53
581.161	23.85
581.612	24.02
582.064	23.4
582.515	23.74
582.965	23.75
583.416	23.99
583.867	24.23
584.318	23.87
584.769	24.54
585.22	23.83
585.671	24.06
586.122	24.07
586.572	23.88
587.023	23.62
587.474	23.85
587.924	24.07
588.375	23.95
588.826	23.51
589.276	23.93
589.727	24.62
590.177	24.14
590.628	23.95
591.078	23.47
591.529	23.52
591.979	23.71
592.429	24.12
592.88	23.89
593.33	23.7
593.78	23.94
594.231	23.42
594.681	23.57
595.131	24.17
595.581	24.1
596.031	23.62
596.481	23.59
596.932	24.24
597.382	23.74
597.832	24.24
598.282	23.9
598.732	23.69
599.182	24.06
599.632	23.84
600.081	24.06
600.531	23.88
600.981	24.04
601.431	23.69
601.881	23.51
602.33	23.79
602.78	23.64
603.23	23.98
603.679	23.54
604.129	23.67
604.579	23.61
605.028	23.46
605.478	24.58
605.927	24.18
606.377	24.02
606.826	24.69
607.276	23.67
607.725	23.88
608.175	24.05
608.624	24.19
609.073	24.5
609.522	23.84
609.972	24.25
610.421	23.57
610.87	24.14
611.319	23.85
611.768	24.25
612.218	23.98
612.667	23.73
613.116	23.5
613.565	24.07
614.014	24.03
614.463	23.95
614.912	24.51
615.361	23.87
615.81	23.34
616.258	24.62
616.707	24.2
617.156	23.51
617.605	23.79
618.054	24.31
618.502	23.97
618.951	24.11
619.4	24.35
619.848	24
620.297	24.35
620.745	24
621.194	23.63
621.642	23.95
622.091	24.07
622.539	23.47
622.988	24.13
623.436	23.51
623.885	23.5
624.333	23.54
624.781	23.91
625.23	24.28
625.678	24.71
626.126	24.21
626.574	24.14
627.022	23.87
627.471	23.9
627.919	23.46
628.367	23.98
628.815	24.25
629.263	24.09
629.711	24.19
630.159	23.45
630.607	24.01
631.055	23.81
631.503	23.34
631.95	23.97
632.398	24.31
632.846	23.67
633.294	23.52
633.742	23.37
634.189	23.89
634.637	24.38
635.085	24.19
635.532	23.51
635.98	23.99
636.427	23.88
636.875	23.63
637.323	24.17
637.77	24.23
638.217	23.47
638.665	24.03
639.112	23.63
639.56	24.06
640.007	24.12
640.454	23.21
640.902	23.86
641.349	24.19
641.796	24.44
642.243	23.85
642.69	24.02
643.138	24.19
643.585	24.63
644.032	23.99
644.479	23.71
644.926	23.6
645.373	24.43
645.82	24.28
646.267	23.83
646.714	24.03
647.161	24.33
647.607	23.74
648.054	24.18
648.501	23.89
648.948	23.93
649.395	23.9
649.841	24.25
650.288	24.11
650.735	23.73
651.181	23.65
651.628	23.84
652.075	23.46
652.521	23.44
652.968	24.3
653.414	23.53
653.861	23.98
654.307	23.89
654.753	23.69
655.2	24.09
655.646	23.97
656.092	24.08
656.539	23.61
656.985	24.09
657.431	23.82
657.877	23.69
658.324	24.27
658.77	24.24
659.216	23.44
659.662	24.87
660.108	23.71
660.554	23.48
661	23.51
661.446	24.35
661.892	24.07
662.338	23.8
662.784	24.22
663.23	23.71
663.675	24.25
664.121	24.28
664.567	24.37
665.013	23.91
665.458	24.28
665.904	23.79
666.35	23.77
666.795	24.01
667.241	23.85
667.687	24.22
668.132	24.34
668.578	23.64
669.023	23.79
669.469	23.78
669.914	23.83
670.359	23.83
670.805	23.75
671.25	24.14
671.695	23.88
672.141	24.1
672.586	24.23
673.031	24.04
673.476	23.77
673.922	24.21
674.367	23.7
674.812	23.63
675.257	23.66
675.702	23.46
676.147	23.84
676.592	23.84
677.037	23.94
677.482	23.81
677.927	24.24
678.372	24.02
678.817	23.94
679.261	24.26
679.706	24.02
680.151	24.05
680.596	23.92
681.04	23.98
681.485	23.76
681.93	24.37
682.374	23.6
682.819	24.26
683.264	24.06
683.708	23.63
684.153	23.77
684.597	23.65
685.042	24.43
685.486	23.75
685.93	24.12
686.375	24.25
686.819	23.97
687.263	23.87
687.708	24.03
688.152	24.27
688.596	23.84
689.04	23.79
689.485	24.12
689.929	23.56
690.373	24.01
690.817	24.16
691.261	23.51
691.705	23.59
692.149	24.03
692.593	23.85
693.037	24.26
693.481	23.6
693.925	24.38
694.369	23.72
694.812	23.38
695.256	23.77
695.7	23.8
696.144	23.81
696.587	24.16
697.031	23.96
697.475	23.93
697.918	23.52
698.362	23.78
698.806	24.08
699.249	23.5
699.693	23.96
700.136	23.66
700.58	24.1
701.023	23.97
701.466	23.52
701.91	23.72
702.353	23.68
702.796	23.55
703.24	23.78
703.683	23.57
704.126	23.49
704.569	23.74
705.013	23.61
705.456	24.23
705.899	23.68
706.342	23.73
706.785	23.62
707.228	23.84
707.671	23.7
708.114	23.48
708.557	23.65
709	23.31
709.443	23.61
709.886	23.51
710.328	24
710.771	23.99
711.214	23.86
711.657	24.08
712.099	23.67
712.542	24.17
712.985	23.8
713.427	23.61
713.87	23.96
714.313	23.72
714.755	23.66
715.198	23.33
715.64	24.03
716.083	23.79
716.525	23.55
716.967	23.7
717.41	23.9
717.852	23.67
718.295	24.01
718.737	24.11
719.179	23.77
719.621	23.4
720.063	23.9
720.506	23.7
720.948	23.8
721.39	23.49
721.832	23.96
722.274	23.98
722.716	23.49
723.158	23.6
723.6	23.84
724.042	24.16
724.484	23.62
724.926	24
725.368	23.79
725.81	23.88
726.251	23.81
726.693	23.93
727.135	23.69
727.577	23.71
728.018	23.84
728.46	23.84
728.902	24.06
729.343	23.82
729.785	24.28
730.226	23.83
730.668	23.85
731.109	23.72
731.551	23.76
731.992	23.25
732.434	23.94
732.875	23.46
733.316	24.1
733.758	23.77
734.199	23.94
734.64	23.7
735.081	23.12
735.523	23.34
735.964	23.25
736.405	23.77
736.846	23.6
737.287	24.26
737.728	23.38
738.169	23.69
738.61	23.8
739.051	23.74
739.492	24.07
739.933	23.44
740.374	23.62
740.815	23.64
741.256	23.79
741.696	23.53
742.137	23.38
742.578	23.77
743.019	23.71
743.459	23.67
743.9	23.42
744.341	23.61
744.781	23.89
745.222	23.66
745.662	23.78
746.103	23.61
746.543	23.83
746.984	23.83
747.424	23.56
747.865	23.38
748.305	22.97
748.745	23.43
749.186	23.61
749.626	23.67
750.066	23.49
750.506	23.89
750.947	23.31
751.387	23.41
751.827	23.74
752.267	23.86
752.707	23.3
753.147	23.15
753.587	23.6
754.027	23.58
754.467	23.57
754.907	23.68
755.347	23.81
755.787	23.8
756.227	23.78
756.667	23.73
757.107	23.65
757.546	24.01
757.986	23.82
758.426	23.84
758.865	23.4
759.305	23.96
759.745	23.36
760.184	23.4
760.624	23.73
761.063	23.49
761.503	23.87
761.943	23.79
762.382	23.83
762.821	23.46
763.261	23.89
763.7	23.87
764.14	23.86
764.579	23.81
765.018	23.58
765.457	23.49
765.897	23.59
766.336	23.68
766.775	23.7
767.214	23.69
767.653	23.57
768.092	23.4
768.531	23.77
768.97	23.69
769.409	23.32
769.848	23.5
770.287	23.66
770.726	23.91
771.165	23.56
771.604	23.55
772.043	23.59
772.482	23.77
772.92	23.9
773.359	24.15
773.798	23.79
774.237	23.49
774.675	23.6
775.114	23.7
775.553	23.47
775.991	23.15
776.43	23.61
776.868	23.31
777.307	24.14
777.745	23.54
778.184	23.62
778.622	23.53
779.06	23.14
779.499	23.68
779.937	23.38
780.375	23.63
780.814	23.7
781.252	23.72
781.69	23.89
782.128	23.47
782.566	23.68
783.004	23.59
783.443	24.17
783.881	23.73
784.319	23.94
784.757	23.64
785.195	23.36
785.633	23.63
786.071	23.83
786.508	23.28
786.946	23.65
787.384	23.37
787.822	24.01
788.26	23.2
788.697	23.63
789.135	23.85
789.573	23.19
790.011	23.5
790.448	23.23
790.886	23.66
791.323	23.68
791.761	23.58
792.198	23.51
792.636	23.42
793.073	23.84
793.511	23.46
793.948	23.49
794.386	23.91
794.823	23.82
795.26	23.89
795.698	23.61
796.135	23.82
796.572	23.89
797.009	23.86
797.446	23.08
797.884	23.28
798.321	23.33
798.758	23.37
799.195	23.38
799.632	23.81
800.069	23.41
800.506	23.4
800.943	23.32
801.38	23.73
801.817	23.03
802.254	23.54
802.69	23.2
803.127	23.66
803.564	23.47
804.001	23.61
804.438	23.62
804.874	23.69
805.311	23.92
805.748	23.52
806.184	23.38
806.621	23.42
807.057	23.41
807.494	23.86
807.93	23.53
808.367	23.78
808.803	23.29
809.24	23.41
809.676	23.63
810.112	23.44
810.549	23.12
810.985	23.4
811.421	23.63
811.857	23.42
812.294	23.45
812.73	23.77
813.166	23.63
813.602	23.42
814.038	23.57
814.474	23.42
814.91	23.55
815.346	23.33
815.782	23.64
816.218	23.26
816.654	23.56
817.09	23.71
817.526	22.97
817.962	23.48
818.398	23.26
818.833	24.11
819.269	23.55
819.705	23.5
820.141	23.27
820.576	23.65
821.012	23.64
821.447	24.02
821.883	23.17
822.319	23.72
822.754	23.22
823.19	23.2
823.625	23.46
824.061	23.61
824.496	23.4
824.931	23.45
825.367	23.51
825.802	23.49
826.237	23.41
826.673	23.21
827.108	23.25
827.543	23.52
827.978	23.29
828.413	23.52
828.849	23.65
829.284	23.24
829.719	23.59
830.154	24.01
830.589	23.65
831.024	23.75
831.459	23.56
831.894	23.6
832.329	23.58
832.763	23.49
833.198	23.53
833.633	23.68
834.068	23.67
834.503	23.45
834.937	23.32
835.372	23.39
835.807	23.24
836.241	23.39
836.676	23.52
837.111	23.13
837.545	23.39
837.98	23.26
838.414	23.52
838.849	23.13
839.283	23.42
839.717	23.19
840.152	23.67
840.586	23.4
841.021	23.07
841.455	23.34
841.889	23.45
842.323	23.12
842.758	23.3
843.192	23.29
843.626	23.47
844.06	23.36
844.494	23.79
844.928	23.25
845.362	23
845.796	23.49
846.23	23.1
846.664	23.36
847.098	23.24
847.532	23.55
847.966	23.39
848.4	23.24
848.834	22.94
849.267	23.3
849.701	23.13
850.135	23.39
850.569	23.28
851.002	23.51
851.436	23.09
851.87	23.46
852.303	23.03
852.737	23.15
853.17	23.21
853.604	23.27
854.037	23.28
854.471	23.25
854.904	23.59
855.337	23.37
855.771	23.22
856.204	22.97
856.637	23.3
857.071	23.33
857.504	23.26
857.937	23.19
858.37	23.66
858.804	23.28
859.237	23.29
859.67	23.34
860.103	23.09
860.536	23.06
860.969	23.31
861.402	22.99
861.835	23.3
862.268	23.54
862.701	23.23
863.134	23.17
863.566	22.77
863.999	23.15
864.432	23.43
864.865	23.07
865.298	23.1
865.73	23.14
866.163	23.06
866.596	23.46
867.028	23.15
867.461	23.08
867.893	23.35
868.326	22.86
868.758	23.24
869.191	23.09
869.623	23.1
870.056	23.35
870.488	23.07
870.92	23.19
871.353	23
871.785	23.1
872.217	23.33
872.65	23.22
873.082	23.07
873.514	23.27
873.946	22.78
874.378	23.3
874.81	23.06
875.243	23.05
875.675	22.84
876.107	23.05
876.539	22.96
876.971	22.93
877.403	23.36
877.834	23.14
878.266	22.97
878.698	23.28
879.13	22.91
879.562	23.2
879.994	23.04
880.425	23.21
880.857	22.89
881.289	22.83
881.72	22.92
882.152	22.9
882.584	23.16
883.015	23
883.447	23.06
883.878	22.83
884.31	22.81
884.741	23.02
885.173	23.07
885.604	23.13
886.035	23.32
886.467	23.31
886.898	23.09
887.329	23.02
887.76	22.92
888.192	23.51
888.623	23.15
889.054	23.08
889.485	23.03
889.916	23.24
890.347	23.18
890.778	22.8
891.209	23.03
891.64	23.3
892.071	23.39
892.502	23.15
892.933	22.96
893.364	23.02
893.795	23.29
894.226	23.12
894.657	23.21
895.087	23.1
895.518	22.94
895.949	23.01
896.38	23.29
896.81	23.11
897.241	22.95
897.671	22.87
898.102	22.94
898.533	22.95
898.963	23.03
899.394	23.07
899.824	23.21
900.254	22.94
900.685	22.72
901.115	23.03
901.546	23.06
901.976	22.75
902.406	22.94
902.836	22.76
903.267	22.92
903.697	23.13
904.127	22.95
904.557	22.83
904.987	23.03
905.417	22.99
905.847	22.93
906.277	23.11
906.707	22.93
907.137	22.95
907.567	22.92
907.997	22.89
908.427	23
908.857	23.26
909.287	23.04
909.717	22.83
910.146	23.02
910.576	23.12
911.006	22.98
911.436	23.24
911.865	22.93
912.295	22.75
912.724	22.9
913.154	22.82
913.584	23.05
914.013	22.83
914.443	23
914.872	22.84
915.302	22.78
915.731	23
916.16	22.86
916.59	22.84
917.019	22.83
917.448	22.78
917.878	22.84
918.307	22.87
918.736	22.98
919.165	22.75
919.594	22.98
920.023	22.83
920.452	22.72
920.882	22.88
921.311	22.84
921.74	22.98
922.169	22.92
922.597	22.86
923.026	22.95
923.455	23.02
923.884	22.79
924.313	23.2
924.742	22.68
925.171	23.12
925.599	22.73
926.028	22.83
926.457	23.12
926.885	22.98
927.314	22.88
927.743	22.89
928.171	22.51
928.6	22.54
929.028	22.85
929.457	22.69
929.885	22.71
930.314	22.92
930.742	22.9
931.17	22.64
931.599	22.76
932.027	22.54
932.455	22.87
932.884	22.57
933.312	22.76
933.74	22.54
934.168	22.71
934.596	22.64
935.025	22.54
935.453	22.68
935.881	22.6
936.309	22.28
936.737	22.48
937.165	22.55
937.593	22.52
938.021	22.53
938.449	22.73
938.876	22.56
939.304	22.72
939.732	22.34
940.16	22.49
940.588	22.71
941.015	22.67
941.443	22.77
941.871	22.44
942.298	22.69
942.726	22.49
943.154	22.26
943.581	22.58
944.009	22.68
944.436	22.54
944.864	23.2
945.291	23.03
945.718	22.96
946.146	22.73
946.573	22.62
947.001	22.79
947.428	22.7
947.855	22.61
948.282	22.61
948.71	22.33
949.137	22.65
949.564	22.68
949.991	22.62
950.418	22.55
950.845	22.64
951.272	22.6
951.699	22.55
952.126	22.57
952.553	22.83
952.98	22.77
953.407	22.36
953.834	22.73
954.261	22.77
954.688	22.53
955.114	22.71
955.541	22.59
955.968	22.41
956.395	22.57
956.821	22.66
957.248	22.11
957.674	22.5
958.101	22.34
958.528	22.43
958.954	22.49
959.381	22.56
959.807	22.44
960.234	22.39
960.66	22.34
961.086	22.21
961.513	22.36
961.939	22.43
962.365	22.19
962.792	22.31
963.218	22.43
963.644	22.55
964.07	22.15
964.496	22.28
964.923	22.53
965.349	22.22
965.775	22.48
966.201	22.38
966.627	22.37
967.053	22.24
967.479	22.41
967.905	22.25
968.331	22.33
968.756	22.4
969.182	22.5
969.608	22.3
970.034	22.51
970.46	22.31
970.885	22.51
971.311	22.51
971.737	22.49
972.162	22.22
972.588	22.29
973.014	22.07
973.439	22.49
973.865	22.31
974.29	22.28
974.716	22.49
975.141	22.32
975.567	22.4
975.992	22.24
976.417	22.33
976.843	22.4
977.268	22.48
977.693	22.6
978.119	22.81
978.544	22.81
978.969	22.7
979.394	23.03
979.819	22.96
980.244	23.1
980.669	22.63
981.095	23.04
981.52	22.94
981.945	22.9
982.369	22.89
982.794	22.81
983.219	22.89
983.644	22.92
984.069	22.64
984.494	22.71
984.919	22.62
985.343	22.29
985.768	22.43
986.193	22.35
986.618	22.26
987.042	22.49
987.467	22.28
987.891	22.48
988.316	22.42
988.741	22.4
989.165	22.72
989.59	22.71
990.014	22.68
990.438	22.58
990.863	22.52
991.287	22.65
991.712	22.59
992.136	22.72
992.56	22.67
992.984	22.4
993.409	22.6
993.833	22.55
994.257	22.49
994.681	22.57
995.105	22.57
995.529	22.63
995.953	22.59
996.377	22.61
996.801	22.69
997.225	22.41
997.649	22.81
998.073	22.52
998.497	22.73
998.921	22.61
999.345	22.6
999.769	22.62
1000.192	22.32
1000.616	22.87
1001.04	22.71
1001.464	22.67
1001.887	22.45
1002.311	22.38
1002.734	22.38
1003.158	22.21
1003.582	22.18
1004.005	22.3
1004.429	22.02
1004.852	22.23
1005.275	22.06
1005.699	22.26
1006.122	22.16
1006.546	22.4
1006.969	22.04
1007.392	22.3
1007.815	22.28
1008.239	22.31
1008.662	22.16
1009.085	22.33
1009.508	22.22
1009.931	22.07
1010.354	22.28
1010.778	22.27
1011.201	22.16
1011.624	22.08
1012.047	22.15
1012.469	22.45
1012.892	22.24
1013.315	22.23
1013.738	22.49
1014.161	22.29
1014.584	22.35
1015.007	22.28
1015.429	22.42
1015.852	22.34
1016.275	22.2
1016.697	22.21
1017.12	22.09
1017.543	22.2
1017.965	21.91
1018.388	22.32
1018.81	22.1
1019.233	22.24
1019.655	22.09
1020.078	22.38
1020.5	22.08
1020.922	22.2
1021.345	22.25
1021.767	22.24
1022.189	22.14
1022.612	22.34
1023.034	21.92
1023.456	22.29
1023.878	22.37
1024.301	22.2
1024.723	22.08
1025.145	22.22
1025.567	22.24
1025.989	22.01
1026.411	22.1
1026.833	22.28
1027.255	22.02
1027.677	22.17
1028.099	22.32
1028.52	22.06
1028.942	22.32
1029.364	21.96
1029.786	22.25
1030.208	22.24
1030.629	22.36
1031.051	22.28
1031.473	22.2
1031.894	22.65
1032.316	22.02
1032.738	22.27
1033.159	21.96
1033.581	22.09
1034.002	22.32
1034.424	22.02
1034.845	22.16
1035.267	22.19
1035.688	22.19
1036.109	22.09
1036.531	22.17
1036.952	21.87
1037.373	22.17
1037.794	22.01
1038.216	22.25
1038.637	21.96
1039.058	22.19
1039.479	22.33
1039.9	22.08
1040.321	22.23
1040.742	22.02
1041.163	21.74
1041.584	22
1042.005	22.02
1042.426	22.11
1042.847	21.99
1043.268	22.21
1043.689	21.88
1044.11	21.97
1044.53	22.1
1044.951	21.89
1045.372	21.73
1045.793	22.07
1046.213	21.91
1046.634	22.26
1047.055	22.24
1047.475	21.99
1047.896	22.05
1048.316	22.01
1048.737	22.3
1049.157	22.23
1049.578	21.96
1049.998	22
1050.419	21.73
1050.839	21.97
1051.259	22.16
1051.68	21.96
1052.1	22.08
1052.52	21.97
1052.94	22.16
1053.361	22.27
1053.781	22.04
1054.201	22.61
1054.621	22.09
1055.041	22.32
1055.461	22.35
1055.881	21.76
1056.301	22.33
1056.721	21.96
1057.141	22.25
1057.561	22.29
1057.981	22.35
1058.401	22.14
1058.82	21.88
1059.24	22.22
1059.66	22.27
1060.08	22.48
1060.499	22.72
1060.919	22.47
1061.339	21.73
1061.758	22
1062.178	22.16
1062.598	22.34
1063.017	22.03
1063.437	21.69
1063.856	22.11
1064.276	22.01
1064.695	22.04
1065.114	21.91
1065.534	22.24
1065.953	22.06
1066.372	22.48
1066.792	21.97
1067.211	21.88
1067.63	22.37
1068.049	22.32
1068.469	21.94
1068.888	22.1
1069.307	22.39
1069.726	21.94
1070.145	21.75
1070.564	22.12
1070.983	21.85
1071.402	21.96
1071.821	21.61
1072.24	22.23
1072.659	21.56
1073.078	22.27
1073.496	21.99
1073.915	22.19
1074.334	21.95
1074.753	22.29
1075.171	21.92
1075.59	21.78
1076.009	21.81
1076.427	22.06
1076.846	21.81
1077.265	21.89
1077.683	21.54
1078.102	22
1078.52	21.9
1078.939	21.74
1079.357	22.13
1079.776	22.17
1080.194	22.18
1080.612	22.07
1081.031	21.9
1081.449	21.97
1081.867	21.82
1082.285	21.9
1082.704	21.86
1083.122	22
1083.54	22.3
1083.958	21.96
1084.376	21.72
1084.794	21.57
1085.212	22.51
1085.63	21.89
1086.048	22.29
1086.466	21.8
1086.884	22.08
1087.302	21.65
1087.72	22.19
1088.138	21.84
1088.555	21.84
1088.973	21.97
1089.391	21.87
1089.809	22.21
1090.226	22.39
1090.644	21.67
1091.062	21.59
1091.479	22.28
1091.897	22.13
1092.314	21.93
1092.732	21.81
1093.15	21.97
1093.567	21.88
1093.984	21.35
1094.402	21.65
1094.819	21.98
1095.237	22.22
1095.654	20.93
1096.071	21.53
1096.488	22.64
1096.906	22.2
1097.323	21.97
1097.74	22.22
1098.157	21.82
1098.574	21.9
1098.991	21.01
1099.409	21.42
1099.826	21.9
1100.243	21.75
1100.66	22.95
1101.077	21.11
1101.494	22.7
1101.91	22.01
1102.327	20.89
1102.744	21.26
1103.161	21.35
1103.578	22.01
1103.994	21.16
1104.411	21.84
1104.828	20.99
1105.245	21.21
1105.661	21.63
1106.078	21.02
1106.494	21.34
1106.911	21.6
1107.328	22.68
1107.744	20.74
1108.161	21.54
1108.577	21.68
1108.993	21.28
1109.41	21.85
1109.826	21.3
1110.242	21.58
1110.659	22.04
1111.075	21.71
1111.491	22.54
1111.908	20.45
1112.324	21.87
1112.74	25.35
1113.156	21.55
1113.572	21.77
1113.988	18.71
1114.404	20.49
1114.82	21.05
1115.236	21.32
1115.652	20.44
1116.068	22.81
1116.484	20.56
1116.9	20.46
1117.316	22.61
1117.732	37.27
1118.147	49
1118.563	-103.57
1118.979	-950
