Data from JCR0025_YellowVentral_Reflection_00002.txt Node
Date: Fri Jul 31 12:00:24 ACST 2020
User: Stacey Dix
Spectrometer: MAYP113282
Scans to average: 1
Trigger mode: 0
Integration Time (sec): 1.000000E-1
Electric dark correction enabled: true
Boxcar width: 0
XAxis mode: Wavelengths
Number of Pixels in Spectrum: 2068
>>>>>Begin Spectral Data<<<<<
198.791	-40.91
199.266	168.75
199.74	135
200.215	-225
200.69	32.74
201.164	23.36
201.639	32.33
202.114	42.49
202.588	46.44
203.063	44.82
203.537	53.35
204.012	58.13
204.486	36.02
204.961	56.61
205.435	27.87
205.909	42.79
206.384	50.67
206.858	36.95
207.332	41.57
207.807	46.82
208.281	52.2
208.755	30.76
209.229	22.03
209.703	34.7
210.177	44.62
210.651	46.11
211.126	39.61
211.6	28.94
212.074	34.34
212.548	50.95
213.021	24.19
213.495	63.55
213.969	41.85
214.443	37.67
214.917	38.94
215.391	30
215.864	31.2
216.338	41.21
216.812	31.88
217.286	28.66
217.759	30.76
218.233	20.09
218.706	23.65
219.18	26
219.654	35.22
220.127	30.39
220.6	26.63
221.074	33.17
221.547	34.87
222.021	36.5
222.494	34.59
222.967	26.87
223.441	31.59
223.914	31.53
224.387	29.97
224.86	35.73
225.334	34.84
225.807	23.25
226.28	30.96
226.753	28.83
227.226	28.92
227.699	29.64
228.172	30.21
228.645	26.65
229.118	21.86
229.591	27.05
230.064	25.44
230.537	29.67
231.01	27.42
231.482	24.06
231.955	21.11
232.428	24.45
232.901	27.57
233.373	25.22
233.846	26.51
234.319	23.42
234.791	24.72
235.264	25.34
235.736	27.15
236.209	24.17
236.681	26.47
237.154	22.86
237.626	25.98
238.099	24.45
238.571	21.48
239.044	26.09
239.516	24.91
239.988	24.57
240.46	24.55
240.933	22.95
241.405	24.58
241.877	23.52
242.349	23.17
242.821	23.79
243.293	24.16
243.765	22.26
244.237	23.84
244.71	24.17
245.181	23.26
245.653	24.1
246.125	23.38
246.597	25.15
247.069	21.32
247.541	21.71
248.013	23.06
248.485	23.91
248.956	22.47
249.428	21.66
249.9	21.79
250.371	19.85
250.843	21.8
251.315	21.76
251.786	22.16
252.258	21.99
252.729	22.08
253.201	22.34
253.672	21.27
254.144	22.62
254.615	21.64
255.086	21.3
255.558	22.73
256.029	21.11
256.5	22.7
256.972	22.05
257.443	22.16
257.914	21.69
258.385	22.37
258.856	21.93
259.327	21.99
259.799	21.98
260.27	21.47
260.741	20.27
261.212	21.45
261.683	22.95
262.154	21.18
262.624	21.89
263.095	22.58
263.566	20.26
264.037	22.58
264.508	21.06
264.979	21.47
265.449	22.1
265.92	21.83
266.391	21.2
266.861	20.76
267.332	20.58
267.803	21.69
268.273	21.99
268.744	21.61
269.214	21.79
269.685	21.47
270.155	21.95
270.626	21.67
271.096	21.01
271.566	21.84
272.037	21.99
272.507	21.34
272.977	22.2
273.448	21.36
273.918	21.33
274.388	21.52
274.858	20.22
275.328	22.4
275.798	21.64
276.268	21.37
276.738	20.88
277.208	20.85
277.678	21.29
278.148	22.1
278.618	21.48
279.088	21.17
279.558	21.84
280.028	20.2
280.498	20.68
280.968	21.31
281.437	21.56
281.907	21.02
282.377	21.34
282.847	20.84
283.316	20.3
283.786	21.4
284.255	22.2
284.725	20.2
285.194	20.91
285.664	20.58
286.133	19.72
286.603	20.04
287.072	20.55
287.542	20.53
288.011	21.45
288.48	19.63
288.95	20.42
289.419	20.31
289.888	19.72
290.357	21.37
290.827	21.22
291.296	20.49
291.765	20.38
292.234	21.16
292.703	20.44
293.172	21.52
293.641	20.91
294.11	21.66
294.579	21.12
295.048	20.32
295.517	21.31
295.986	21
296.455	21.67
296.923	21.59
297.392	20.43
297.861	21.39
298.33	21.18
298.798	21.54
299.267	22.66
299.736	21.02
300.204	22.98
300.673	20.78
301.141	21.94
301.61	22.01
302.079	20.98
302.547	22.71
303.015	20.65
303.484	20.95
303.952	21.42
304.421	22.07
304.889	21.68
305.357	21.7
305.825	21.23
306.294	21.65
306.762	20.96
307.23	22.91
307.698	22.31
308.166	21.53
308.634	21.87
309.103	22.09
309.571	21.59
310.039	21.91
310.507	20.8
310.975	22.2
311.442	21.44
311.91	22.1
312.378	22.02
312.846	21.33
313.314	22.6
313.782	21.01
314.249	22.74
314.717	23.38
315.185	23.48
315.652	22.34
316.12	21.79
316.588	22.62
317.055	23.32
317.523	22.84
317.99	21.98
318.458	23.06
318.925	22.73
319.393	22.64
319.86	22.36
320.328	22.79
320.795	22.7
321.262	22.21
321.73	22.16
322.197	23.25
322.664	22.13
323.131	23.6
323.598	23.71
324.066	23.19
324.533	21.11
325	23.45
325.467	22.43
325.934	23.27
326.401	24.54
326.868	23.39
327.335	23.02
327.802	23.15
328.269	24.56
328.735	23.51
329.202	25.55
329.669	25.07
330.136	24.94
330.603	24.86
331.069	24.95
331.536	24.23
332.003	24.96
332.469	24.21
332.936	24.57
333.402	25.99
333.869	26.43
334.336	26.97
334.802	25
335.268	25.62
335.735	25.38
336.201	25.96
336.668	25.34
337.134	25.36
337.6	24.8
338.067	24.98
338.533	24.89
338.999	24.38
339.465	26.15
339.931	25.14
340.398	26.04
340.864	25.09
341.33	25.34
341.796	26.46
342.262	25.03
342.728	25.44
343.194	26.26
343.66	24.13
344.126	25.47
344.592	24.71
345.057	24.97
345.523	24.83
345.989	25.7
346.455	25.85
346.921	26.19
347.386	25.07
347.852	24.62
348.318	24.47
348.783	25.59
349.249	25.29
349.714	25.84
350.18	26.05
350.645	25.35
351.111	25.3
351.576	24.74
352.042	24.87
352.507	26.33
352.973	25.14
353.438	23.88
353.903	24.86
354.369	23.74
354.834	25.66
355.299	23.84
355.764	24.23
356.229	25.96
356.695	25.05
357.16	24.54
357.625	23.41
358.09	24.1
358.555	24.48
359.02	25.28
359.485	23.68
359.95	24.18
360.415	24.37
360.879	24.84
361.344	25.29
361.809	23.95
362.274	23.9
362.739	24.47
363.203	23.68
363.668	23.05
364.133	24.71
364.597	26.11
365.062	23.49
365.527	24.03
365.991	24.02
366.456	24.08
366.92	24.59
367.385	22.47
367.849	24.8
368.314	24.71
368.778	24.1
369.242	23.92
369.707	25.88
370.171	24.24
370.635	23.32
371.1	22.94
371.564	24.55
372.028	25.65
372.492	24.09
372.956	23.07
373.42	22.96
373.884	24.14
374.348	24.52
374.812	22.32
375.276	23.21
375.74	22.69
376.204	23.64
376.668	22.98
377.132	23.74
377.596	23.7
378.06	22.73
378.524	23.77
378.987	23.37
379.451	24.53
379.915	23.3
380.378	22.51
380.842	22.92
381.306	22.88
381.769	22.89
382.233	23.61
382.696	24.14
383.16	22.87
383.623	23.18
384.087	22.53
384.55	21.85
385.014	21.81
385.477	22.95
385.94	23.48
386.404	23.01
386.867	23.41
387.33	21.93
387.793	22.76
388.256	22.25
388.72	23.93
389.183	21.72
389.646	22.39
390.109	23.56
390.572	23.46
391.035	21.79
391.498	23.01
391.961	21.64
392.424	22.07
392.887	21.82
393.35	22.61
393.812	23.12
394.275	21.22
394.738	22.23
395.201	22.14
395.664	22.08
396.126	22.93
396.589	22.58
397.052	22.49
397.514	21.35
397.977	22.57
398.439	22.72
398.902	22.61
399.364	22.86
399.827	21.52
400.289	21.85
400.752	20.49
401.214	21.4
401.676	22.62
402.139	22.23
402.601	21.21
403.063	21.8
403.525	23.23
403.988	22.03
404.45	21.09
404.912	21.66
405.374	21.75
405.836	20.89
406.298	22.18
406.76	20.45
407.222	21.23
407.684	20.64
408.146	21.55
408.608	20.95
409.07	21.11
409.532	20.71
409.994	21.12
410.456	21.72
410.917	20.3
411.379	20.66
411.841	20.66
412.303	21.29
412.764	21.05
413.226	19.95
413.687	20.73
414.149	20.69
414.611	20.69
415.072	20.71
415.534	21.99
415.995	20.97
416.457	20.56
416.918	20.47
417.379	20.4
417.841	20.55
418.302	20.8
418.763	19.96
419.225	18.98
419.686	20.92
420.147	20.28
420.608	20.27
421.069	20.6
421.53	19.53
421.991	21.1
422.453	20.27
422.914	20.03
423.375	20.17
423.836	20.34
424.297	20.9
424.757	20.52
425.218	19.54
425.679	20.56
426.14	20.77
426.601	20.22
427.062	20.69
427.522	20.03
427.983	19.55
428.444	20.43
428.904	20.39
429.365	20.96
429.826	20.94
430.286	20.79
430.747	20.99
431.207	19.92
431.668	19.77
432.128	19.82
432.589	19.7
433.049	20.06
433.509	19.36
433.97	18.14
434.43	18.08
434.89	18.76
435.351	17.81
435.811	19.88
436.271	19.44
436.731	19.73
437.191	20.32
437.651	18.49
438.112	20.57
438.572	21.03
439.032	18.33
439.492	19.68
439.952	19.63
440.412	18.95
440.871	20.4
441.331	19.99
441.791	20.41
442.251	19.65
442.711	19.19
443.171	19.57
443.63	17.14
444.09	20.42
444.55	20.81
445.009	17.73
445.469	19.28
445.929	20.33
446.388	19.66
446.848	20.84
447.307	20.61
447.767	20.03
448.226	20.56
448.686	20.26
449.145	18.32
449.604	19.93
450.064	20.16
450.523	19.88
450.982	20.25
451.442	20.5
451.901	20.71
452.36	19.78
452.819	18.74
453.278	20.34
453.737	20.51
454.197	20.71
454.656	19.54
455.115	20.78
455.574	21.35
456.033	21.17
456.492	20.84
456.95	19.11
457.409	21.41
457.868	19.08
458.327	19.91
458.786	21.38
459.245	19.5
459.703	21.36
460.162	19.85
460.621	19.86
461.079	21.3
461.538	19.2
461.997	20.97
462.455	20.81
462.914	21.52
463.372	19.86
463.831	18.57
464.289	20.58
464.748	22.41
465.206	21.23
465.664	20.61
466.123	20.44
466.581	20.84
467.039	20.95
467.497	20.42
467.956	21.24
468.414	22.28
468.872	20.95
469.33	20.73
469.788	21.82
470.246	21.98
470.704	21.08
471.162	20.64
471.62	24.33
472.078	22.56
472.536	21.77
472.994	20.61
473.452	21.49
473.91	23.66
474.368	21.98
474.826	27.68
475.283	23.68
475.741	21.77
476.199	25.78
476.656	25.77
477.114	24.17
477.572	25.64
478.029	25.11
478.487	26.07
478.944	25.61
479.402	27.52
479.859	25.39
480.317	26.04
480.774	29.23
481.232	25.65
481.689	29.04
482.146	28.01
482.604	27.57
483.061	27.39
483.518	28.41
483.975	27.08
484.433	29.53
484.89	27.98
485.347	28.02
485.804	31.88
486.261	31.06
486.718	33.6
487.175	28.73
487.632	29.76
488.089	30.93
488.546	33.16
489.003	32.3
489.46	32.91
489.917	35.35
490.373	33.76
490.83	33.45
491.287	34.46
491.744	30.9
492.2	33.52
492.657	32.82
493.114	32.87
493.57	32.42
494.027	38.74
494.484	35.15
494.94	35.04
495.397	35.04
495.853	35.55
496.31	35
496.766	37.33
497.222	35.05
497.679	36.53
498.135	35.68
498.591	36.56
499.048	35.2
499.504	37.98
499.96	36.93
500.416	35.65
500.872	33.68
501.329	36.68
501.785	34.34
502.241	38.24
502.697	39.86
503.153	36
503.609	37.61
504.065	38.33
504.521	36.78
504.977	43.24
505.432	38.41
505.888	37.89
506.344	38.09
506.8	38.74
507.256	39.17
507.711	37.66
508.167	39.49
508.623	37.78
509.078	38.91
509.534	37.82
509.99	39.2
510.445	40.52
510.901	39.28
511.356	38.08
511.812	39.17
512.267	39.54
512.722	38.78
513.178	39.28
513.633	40.33
514.089	39.22
514.544	37.93
514.999	38.64
515.454	41.81
515.91	37.45
516.365	37.52
516.82	38.13
517.275	40.04
517.73	40.75
518.185	38.68
518.64	38.65
519.095	39.64
519.55	40.68
520.005	39.31
520.46	40.74
520.915	40.84
521.37	39.05
521.825	40.42
522.28	41.14
522.734	41.24
523.189	40.74
523.644	39.17
524.099	41.94
524.553	40.23
525.008	40.8
525.462	42.95
525.917	41.25
526.372	42.37
526.826	40.31
527.281	42.75
527.735	40.15
528.19	42.1
528.644	43.63
529.098	40.89
529.553	41.27
530.007	40.78
530.461	40.92
530.916	40.2
531.37	42.83
531.824	43.13
532.278	41.25
532.732	43.72
533.186	42.27
533.641	42.65
534.095	43.98
534.549	42.95
535.003	43.87
535.457	42.66
535.911	43.99
536.365	43.97
536.818	43.13
537.272	44.62
537.726	45.29
538.18	42.64
538.634	42.72
539.087	44.09
539.541	43.24
539.995	43.99
540.449	44.88
540.902	43.31
541.356	42.7
541.809	42.33
542.263	43.21
542.716	43.69
543.17	44.17
543.623	45.1
544.077	45.32
544.53	46.04
544.984	45.1
545.437	46.01
545.89	43.66
546.344	45.11
546.797	46.2
547.25	47.14
547.703	46.23
548.157	44.86
548.61	45.78
549.063	45.78
549.516	46.19
549.969	47.42
550.422	44.12
550.875	46.88
551.328	46.88
551.781	47.24
552.234	47.58
552.687	46.87
553.14	45.62
553.592	45.09
554.045	45.78
554.498	46.22
554.951	47.13
555.404	46.6
555.856	47.61
556.309	46.43
556.762	46.53
557.214	46.09
557.667	45.4
558.119	49.45
558.572	45.12
559.024	48.2
559.477	46.86
559.929	45.01
560.382	45.66
560.834	48.36
561.286	45.62
561.739	47.85
562.191	47.14
562.643	47.3
563.095	48.27
563.548	45.87
564	46.73
564.452	46.76
564.904	45.67
565.356	47.77
565.808	47.66
566.26	47.97
566.712	47.81
567.164	48.31
567.616	47.13
568.068	49.25
568.52	46.85
568.972	47.64
569.424	46.27
569.876	49.52
570.327	48.15
570.779	47.25
571.231	47.24
571.682	47.96
572.134	47.73
572.586	48.36
573.037	48.34
573.489	48.41
573.941	48.68
574.392	47.72
574.844	46.64
575.295	48.4
575.746	48.49
576.198	47.94
576.649	49.27
577.101	48.65
577.552	49.06
578.003	47.94
578.454	47.53
578.906	48.54
579.357	49.17
579.808	48.74
580.259	47.41
580.71	49.6
581.161	47.8
581.612	48.26
582.064	48.37
582.515	47.54
582.965	48.33
583.416	48.13
583.867	48.76
584.318	49.48
584.769	48.75
585.22	47.81
585.671	47.19
586.122	47.96
586.572	47.81
587.023	50.87
587.474	47.72
587.924	49.02
588.375	48.89
588.826	50.17
589.276	48
589.727	47.3
590.177	47.68
590.628	50.02
591.078	48.08
591.529	47.37
591.979	47.1
592.429	49.35
592.88	50.15
593.33	48.61
593.78	47.98
594.231	48.42
594.681	48.23
595.131	48.95
595.581	47.87
596.031	48
596.481	47.65
596.932	48.55
597.382	48.47
597.832	49.38
598.282	47.96
598.732	50.26
599.182	47.79
599.632	48.06
600.081	48.48
600.531	48.83
600.981	49.72
601.431	48.19
601.881	51.41
602.33	48.18
602.78	50.12
603.23	49.74
603.679	50.81
604.129	50.02
604.579	49.06
605.028	47.68
605.478	48.97
605.927	47.31
606.377	49.51
606.826	50.39
607.276	48.51
607.725	48.51
608.175	49.37
608.624	49.11
609.073	50.27
609.522	48.55
609.972	48.55
610.421	50.64
610.87	48.56
611.319	48.58
611.768	49.17
612.218	48.95
612.667	48.54
613.116	48.73
613.565	49.52
614.014	47.24
614.463	48.5
614.912	48.4
615.361	49.71
615.81	47.38
616.258	49.69
616.707	48.46
617.156	50.13
617.605	48.24
618.054	51.11
618.502	48.59
618.951	49.04
619.4	48.2
619.848	48.96
620.297	49.6
620.745	49.69
621.194	48.39
621.642	48.53
622.091	50.12
622.539	49.09
622.988	50.09
623.436	50.55
623.885	50.05
624.333	47.87
624.781	49.91
625.23	48.05
625.678	49.43
626.126	48.35
626.574	49.49
627.022	48.37
627.471	48.18
627.919	48.79
628.367	49.46
628.815	49.47
629.263	49.79
629.711	48.72
630.159	48.96
630.607	49.71
631.055	47.64
631.503	49.05
631.95	48.47
632.398	46.8
632.846	49.3
633.294	47.08
633.742	49.15
634.189	49.72
634.637	50.13
635.085	49.21
635.532	49.23
635.98	48.85
636.427	48.3
636.875	49.11
637.323	48.71
637.77	48.14
638.217	50.25
638.665	49.63
639.112	48.57
639.56	47.89
640.007	49
640.454	49.36
640.902	47.98
641.349	49.45
641.796	49.21
642.243	49.26
642.69	48.56
643.138	49.66
643.585	49.32
644.032	49.14
644.479	48.92
644.926	49.51
645.373	48.74
645.82	48.81
646.267	48.93
646.714	47.44
647.161	48.72
647.607	47.64
648.054	49.04
648.501	50.19
648.948	49.55
649.395	48.24
649.841	48.95
650.288	48.98
650.735	48.99
651.181	48.56
651.628	48.11
652.075	49.04
652.521	50.11
652.968	49.26
653.414	48.44
653.861	48.43
654.307	48.82
654.753	48.81
655.2	48.03
655.646	47.99
656.092	48.29
656.539	49.39
656.985	48.64
657.431	49.53
657.877	48.3
658.324	49.21
658.77	50.13
659.216	48.25
659.662	48.72
660.108	49.71
660.554	48.01
661	48.2
661.446	49.32
661.892	49.38
662.338	49.98
662.784	48.74
663.23	49.56
663.675	48.26
664.121	48.55
664.567	49.74
665.013	48.77
665.458	48.65
665.904	49.69
666.35	47.16
666.795	49
667.241	49.36
667.687	49.43
668.132	48.66
668.578	48.66
669.023	48.9
669.469	48.56
669.914	48.82
670.359	48.95
670.805	48.77
671.25	48.5
671.695	47.11
672.141	49.7
672.586	48.93
673.031	49.5
673.476	48.75
673.922	48.14
674.367	48.24
674.812	48.59
675.257	49.38
675.702	49.6
676.147	49.02
676.592	47.67
677.037	48.13
677.482	49.21
677.927	48.29
678.372	47.67
678.817	49.08
679.261	49.14
679.706	47.7
680.151	49.37
680.596	47.7
681.04	48.85
681.485	49.09
681.93	49.13
682.374	49.24
682.819	49.21
683.264	49.1
683.708	48.65
684.153	48.45
684.597	49.33
685.042	48.88
685.486	49.2
685.93	47.52
686.375	49.04
686.819	47.92
687.263	48.49
687.708	48.78
688.152	47.66
688.596	48.41
689.04	48.54
689.485	49.43
689.929	48.02
690.373	48.65
690.817	48.1
691.261	49.18
691.705	47.96
692.149	48.76
692.593	46.7
693.037	48.16
693.481	47.72
693.925	48.07
694.369	49.06
694.812	47.52
695.256	47.64
695.7	48.6
696.144	48
696.587	47.84
697.031	48.97
697.475	47.35
697.918	48.76
698.362	48
698.806	48.61
699.249	48.89
699.693	46.78
700.136	48.13
700.58	47.92
701.023	47.97
701.466	48.02
701.91	48.47
702.353	48.7
702.796	48.17
703.24	47.67
703.683	48.49
704.126	48.4
704.569	48.42
705.013	48.08
705.456	48.71
705.899	47.7
706.342	47.98
706.785	48.18
707.228	49.37
707.671	48.11
708.114	48.52
708.557	47.5
709	48.13
709.443	48.19
709.886	47.39
710.328	48.59
710.771	48.61
711.214	47.68
711.657	48.91
712.099	48.17
712.542	46.89
712.985	48.2
713.427	47.69
713.87	47.7
714.313	47.69
714.755	46.53
715.198	47.56
715.64	47.4
716.083	46.95
716.525	47.54
716.967	46.74
717.41	47.84
717.852	48
718.295	47.44
718.737	48.59
719.179	48.83
719.621	48.31
720.063	47.96
720.506	48.28
720.948	48.15
721.39	47.93
721.832	47.79
722.274	47.34
722.716	47.16
723.158	47.15
723.6	47.69
724.042	47.77
724.484	47.29
724.926	47.27
725.368	47.03
725.81	47.72
726.251	47.1
726.693	48.02
727.135	48.05
727.577	47.49
728.018	47.37
728.46	46.51
728.902	47.98
729.343	47.87
729.785	47.04
730.226	47.32
730.668	46.58
731.109	48.08
731.551	46.81
731.992	47.36
732.434	47.96
732.875	48.14
733.316	48.03
733.758	47.36
734.199	48.11
734.64	46.47
735.081	47.72
735.523	48.5
735.964	47.48
736.405	47.3
736.846	48.04
737.287	46.76
737.728	47.18
738.169	47.78
738.61	47.43
739.051	47.11
739.492	48.41
739.933	47.2
740.374	47.54
740.815	47.47
741.256	47.61
741.696	46.59
742.137	47.58
742.578	47.69
743.019	46.31
743.459	46.88
743.9	46.68
744.341	46.83
744.781	47.42
745.222	46.76
745.662	46.35
746.103	46.61
746.543	46.87
746.984	46.54
747.424	46.21
747.865	46.82
748.305	46.5
748.745	46.08
749.186	47.19
749.626	48.63
750.066	46.8
750.506	46.77
750.947	46.65
751.387	47.22
751.827	46.67
752.267	46.66
752.707	47.27
753.147	47.83
753.587	46.05
754.027	47.69
754.467	47.27
754.907	47.3
755.347	47.69
755.787	46.75
756.227	47.01
756.667	47.74
757.107	47.18
757.546	46.24
757.986	47
758.426	47.12
758.865	47.79
759.305	47.57
759.745	45.96
760.184	46.93
760.624	47.63
761.063	47.49
761.503	47.34
761.943	46.86
762.382	46.69
762.821	47.75
763.261	47.52
763.7	46.17
764.14	46.28
764.579	47.3
765.018	47.61
765.457	47.19
765.897	47.5
766.336	47.12
766.775	47.13
767.214	46.83
767.653	46.88
768.092	46.96
768.531	46.67
768.97	47.19
769.409	46.57
769.848	46.82
770.287	47.4
770.726	46.6
771.165	47.04
771.604	47.1
772.043	46.81
772.482	46.51
772.92	47.18
773.359	46.34
773.798	46.79
774.237	47
774.675	46.99
775.114	46.54
775.553	46.87
775.991	46.58
776.43	47.01
776.868	45.49
777.307	46.08
777.745	46.9
778.184	45.83
778.622	46.9
779.06	46.49
779.499	46.47
779.937	46.32
780.375	47.06
780.814	46.31
781.252	46.79
781.69	47.01
782.128	45.8
782.566	47.01
783.004	46.04
783.443	46.45
783.881	46.65
784.319	46.19
784.757	46.87
785.195	46.26
785.633	46.31
786.071	45.72
786.508	46.59
786.946	46.32
787.384	46.53
787.822	46.52
788.26	45.88
788.697	46.13
789.135	45.26
789.573	46.49
790.011	45.77
790.448	45.98
790.886	46.22
791.323	45.59
791.761	46.78
792.198	46.05
792.636	46.12
793.073	45.58
793.511	46.34
793.948	46.45
794.386	46.91
794.823	46.14
795.26	45.72
795.698	46.59
796.135	45.99
796.572	46.93
797.009	44.38
797.446	45.84
797.884	46.08
798.321	45.74
798.758	46.34
799.195	45.32
799.632	45
800.069	45.31
800.506	46.19
800.943	45.9
801.38	46.01
801.817	46.4
802.254	45.3
802.69	46.03
803.127	45.43
803.564	45.81
804.001	46.52
804.438	46.45
804.874	45.99
805.311	46.17
805.748	47.17
806.184	45.12
806.621	46.76
807.057	46.22
807.494	45.83
807.93	46.62
808.367	46.04
808.803	45.65
809.24	46.21
809.676	46.38
810.112	45.07
810.549	46.61
810.985	45.72
811.421	46.09
811.857	46.03
812.294	45.08
812.73	46.34
813.166	46
813.602	45.55
814.038	45.87
814.474	45.23
814.91	45.83
815.346	45.77
815.782	45.19
816.218	46.14
816.654	46.19
817.09	45.65
817.526	46.13
817.962	45.68
818.398	46.48
818.833	46.2
819.269	45.76
819.705	45.28
820.141	46.05
820.576	45.52
821.012	45.49
821.447	45.01
821.883	46.15
822.319	46.16
822.754	45.21
823.19	45.8
823.625	46.81
824.061	45.58
824.496	45.47
824.931	45.86
825.367	46.43
825.802	45.29
826.237	46.38
826.673	46
827.108	45.51
827.543	45.25
827.978	45.9
828.413	45.57
828.849	45.64
829.284	45.66
829.719	45.41
830.154	45.59
830.589	45.46
831.024	45.78
831.459	45.87
831.894	45
832.329	46.25
832.763	45.18
833.198	46.01
833.633	44.95
834.068	45.3
834.503	45.85
834.937	45.29
835.372	46.67
835.807	46.02
836.241	45.42
836.676	45.66
837.111	45.24
837.545	45.22
837.98	45.2
838.414	45.27
838.849	45.09
839.283	45.35
839.717	44.9
840.152	44.8
840.586	45.94
841.021	44.67
841.455	44.84
841.889	45.54
842.323	45.23
842.758	45.41
843.192	44.93
843.626	44.38
844.06	45.61
844.494	44.9
844.928	45.6
845.362	45.43
845.796	45.99
846.23	45.02
846.664	44.66
847.098	44.21
847.532	45.56
847.966	44.6
848.4	44.61
848.834	45.06
849.267	44.99
849.701	44.72
850.135	45.16
850.569	45.04
851.002	44.39
851.436	44.32
851.87	44.31
852.303	44.78
852.737	45.01
853.17	44.56
853.604	45.02
854.037	44.53
854.471	44.97
854.904	45.69
855.337	45.31
855.771	45.16
856.204	45.39
856.637	45.37
857.071	45.04
857.504	45.08
857.937	44.71
858.37	44.66
858.804	44.66
859.237	44.14
859.67	44.36
860.103	44.51
860.536	45.08
860.969	44.63
861.402	44.72
861.835	45.67
862.268	44.56
862.701	44.72
863.134	44.48
863.566	45.02
863.999	44.83
864.432	44.38
864.865	45.05
865.298	44.93
865.73	44.58
866.163	44.62
866.596	44.68
867.028	44.31
867.461	45.19
867.893	44.52
868.326	44.12
868.758	44.67
869.191	44.38
869.623	44.98
870.056	44.26
870.488	44.37
870.92	44.97
871.353	43.87
871.785	44.75
872.217	44.66
872.65	44.21
873.082	44.51
873.514	44.78
873.946	44.7
874.378	45.22
874.81	44.83
875.243	43.88
875.675	43.66
876.107	44.66
876.539	44.99
876.971	44.61
877.403	44.98
877.834	44.75
878.266	44.59
878.698	44.26
879.13	43.88
879.562	44.36
879.994	44.01
880.425	44.01
880.857	45.24
881.289	43.87
881.72	44.3
882.152	44.64
882.584	44.15
883.015	44.05
883.447	44.51
883.878	45.71
884.31	44.48
884.741	44.87
885.173	44.74
885.604	43.78
886.035	44.7
886.467	44.57
886.898	44.27
887.329	43.86
887.76	44.14
888.192	44.66
888.623	44.24
889.054	44.52
889.485	44.65
889.916	44.53
890.347	44.29
890.778	43.71
891.209	44.21
891.64	44.75
892.071	44.57
892.502	44.14
892.933	44.59
893.364	44.32
893.795	44.33
894.226	44.5
894.657	43.85
895.087	44.74
895.518	44.88
895.949	44.28
896.38	44.36
896.81	43.98
897.241	44.5
897.671	44.34
898.102	43.85
898.533	43.86
898.963	44.38
899.394	44.09
899.824	44.41
900.254	43.54
900.685	44.66
901.115	43.43
901.546	44.43
901.976	44.23
902.406	43.97
902.836	43.61
903.267	43.84
903.697	44
904.127	43.6
904.557	43.48
904.987	43.39
905.417	44.53
905.847	44.39
906.277	43.88
906.707	43.51
907.137	43.55
907.567	44.48
907.997	43.77
908.427	43.78
908.857	43.64
909.287	44.01
909.717	43.62
910.146	43.51
910.576	44.01
911.006	43.77
911.436	44.07
911.865	43.42
912.295	43.74
912.724	42.94
913.154	43.73
913.584	43.5
914.013	43.73
914.443	43.33
914.872	43.47
915.302	43.6
915.731	43.67
916.16	43.16
916.59	43.94
917.019	43.58
917.448	43.54
917.878	43.23
918.307	43.23
918.736	43.31
919.165	43.59
919.594	43.88
920.023	43.42
920.452	43.87
920.882	44.52
921.311	43.05
921.74	43.57
922.169	43.29
922.597	43.07
923.026	43.44
923.455	43.45
923.884	43.46
924.313	43.67
924.742	42.88
925.171	43.8
925.599	42.6
926.028	44
926.457	43.48
926.885	43.04
927.314	42.86
927.743	42.79
928.171	43.17
928.6	43.55
929.028	43.61
929.457	43.74
929.885	42.65
930.314	43.57
930.742	43.19
931.17	42.93
931.599	43.17
932.027	43.72
932.455	43.33
932.884	43.09
933.312	42.9
933.74	42.66
934.168	43.67
934.596	43.37
935.025	43.22
935.453	42.62
935.881	42.72
936.309	43.04
936.737	42.61
937.165	43.53
937.593	42.96
938.021	42.8
938.449	42.2
938.876	42.08
939.304	42.35
939.732	42.36
940.16	43.26
940.588	42.97
941.015	43.54
941.443	42.91
941.871	43.3
942.298	43.45
942.726	42.38
943.154	43.03
943.581	42.91
944.009	42.49
944.436	42.3
944.864	43.48
945.291	42.67
945.718	42.47
946.146	42.82
946.573	42.49
947.001	43.47
947.428	43.27
947.855	43.15
948.282	42.39
948.71	43.08
949.137	43.16
949.564	43.3
949.991	42.72
950.418	43.39
950.845	43.67
951.272	43.18
951.699	43.35
952.126	42.98
952.553	43.15
952.98	42.55
953.407	43.08
953.834	43.6
954.261	42.67
954.688	42.47
955.114	42.56
955.541	42.76
955.968	42.91
956.395	42.85
956.821	43.15
957.248	43.03
957.674	42.5
958.101	42.65
958.528	42.8
958.954	42.81
959.381	42.71
959.807	42.81
960.234	42.55
960.66	42.01
961.086	42.55
961.513	42.52
961.939	42.97
962.365	42.89
962.792	41.74
963.218	41.93
963.644	41.73
964.07	41.95
964.496	42.34
964.923	42.2
965.349	42
965.775	41.95
966.201	42.34
966.627	42.45
967.053	42.41
967.479	42.17
967.905	42.09
968.331	42.3
968.756	41.74
969.182	41.86
969.608	41.42
970.034	41.43
970.46	41.81
970.885	41.7
971.311	42.24
971.737	41.57
972.162	41.9
972.588	41.9
973.014	42.4
973.439	41.16
973.865	41.56
974.29	41.47
974.716	41.72
975.141	41.92
975.567	41.48
975.992	42.19
976.417	41.53
976.843	42.01
977.268	41.79
977.693	41.57
978.119	41.59
978.544	41.62
978.969	41.81
979.394	41.93
979.819	41.4
980.244	41.2
980.669	41.41
981.095	41.28
981.52	41.32
981.945	41.3
982.369	41.25
982.794	41.44
983.219	41.56
983.644	41.55
984.069	41.13
984.494	41.16
984.919	41.23
985.343	40.85
985.768	41.06
986.193	41.03
986.618	41.07
987.042	41.35
987.467	40.96
987.891	41.27
988.316	40.72
988.741	41.28
989.165	41.32
989.59	40.81
990.014	41.31
990.438	41.34
990.863	41.24
991.287	41.95
991.712	41.14
992.136	41.47
992.56	40.72
992.984	41.49
993.409	41.12
993.833	41.2
994.257	41.04
994.681	41.08
995.105	41.14
995.529	41.48
995.953	41.79
996.377	41.24
996.801	41.05
997.225	41.75
997.649	41.38
998.073	41.2
998.497	41.47
998.921	41.45
999.345	41.58
999.769	41.37
1000.192	41.57
1000.616	41.65
1001.04	41.78
1001.464	41.51
1001.887	41.4
1002.311	41.8
1002.734	41.52
1003.158	41.92
1003.582	41.66
1004.005	41.66
1004.429	41.69
1004.852	41.64
1005.275	41.31
1005.699	41.75
1006.122	41.37
1006.546	41.41
1006.969	41.71
1007.392	41.97
1007.815	41.37
1008.239	41.09
1008.662	41.4
1009.085	41.64
1009.508	42.24
1009.931	41.45
1010.354	41.51
1010.778	41.7
1011.201	41.63
1011.624	41.5
1012.047	41.77
1012.469	41.63
1012.892	41.75
1013.315	41.49
1013.738	42.13
1014.161	41.5
1014.584	41.54
1015.007	41.17
1015.429	41.45
1015.852	41.7
1016.275	41.77
1016.697	41.86
1017.12	41.35
1017.543	41.03
1017.965	41.57
1018.388	41.21
1018.81	41.69
1019.233	41.77
1019.655	42.11
1020.078	40.85
1020.5	41.76
1020.922	41.53
1021.345	41.74
1021.767	41.25
1022.189	41.77
1022.612	41.46
1023.034	41.39
1023.456	41.42
1023.878	41.39
1024.301	41.16
1024.723	41.67
1025.145	41.02
1025.567	41.38
1025.989	40.85
1026.411	40.91
1026.833	41.45
1027.255	41.06
1027.677	41.33
1028.099	41.51
1028.52	41.47
1028.942	41.18
1029.364	40.47
1029.786	40.69
1030.208	40.93
1030.629	41.47
1031.051	41.3
1031.473	41.05
1031.894	40.88
1032.316	41.42
1032.738	41.04
1033.159	41.2
1033.581	41.53
1034.002	41.38
1034.424	41.71
1034.845	41.32
1035.267	41.24
1035.688	41.23
1036.109	41.36
1036.531	40.91
1036.952	41.07
1037.373	41.28
1037.794	41.53
1038.216	41.14
1038.637	41.42
1039.058	41.01
1039.479	41.28
1039.9	40.98
1040.321	41.49
1040.742	41.2
1041.163	41.36
1041.584	41.26
1042.005	41.57
1042.426	41.9
1042.847	40.86
1043.268	40.97
1043.689	41.1
1044.11	40.83
1044.53	41.44
1044.951	41.19
1045.372	41.22
1045.793	41.18
1046.213	41.43
1046.634	41
1047.055	40.83
1047.475	41.31
1047.896	41.29
1048.316	40.43
1048.737	41.99
1049.157	41.54
1049.578	40.23
1049.998	41.33
1050.419	40.51
1050.839	40.96
1051.259	40.92
1051.68	41.52
1052.1	41.23
1052.52	41.11
1052.94	41.61
1053.361	40.38
1053.781	40.11
1054.201	40.63
1054.621	40.97
1055.041	41.2
1055.461	41.02
1055.881	41.58
1056.301	40.28
1056.721	40.56
1057.141	41.23
1057.561	41.73
1057.981	41.75
1058.401	41.49
1058.82	40.3
1059.24	40.81
1059.66	40.99
1060.08	40.85
1060.499	41.18
1060.919	40.97
1061.339	40.85
1061.758	41.1
1062.178	40.43
1062.598	40.31
1063.017	40.35
1063.437	40.85
1063.856	40.71
1064.276	40.87
1064.695	40.67
1065.114	40.65
1065.534	41.12
1065.953	39.85
1066.372	41.18
1066.792	41.05
1067.211	40.38
1067.63	40.83
1068.049	40.37
1068.469	39.53
1068.888	40.45
1069.307	40.91
1069.726	39.87
1070.145	41
1070.564	39.36
1070.983	40.07
1071.402	40.79
1071.821	39.49
1072.24	42.1
1072.659	41.04
1073.078	40.04
1073.496	40.88
1073.915	40.65
1074.334	40.58
1074.753	40.04
1075.171	40.41
1075.59	40.21
1076.009	40.1
1076.427	40.33
1076.846	40.42
1077.265	39.84
1077.683	40.53
1078.102	40.42
1078.52	40.71
1078.939	38.69
1079.357	40.58
1079.776	39.41
1080.194	40.55
1080.612	39.78
1081.031	39.31
1081.449	39.02
1081.867	40
1082.285	39.78
1082.704	39.37
1083.122	39.24
1083.54	40.53
1083.958	40.12
1084.376	38.93
1084.794	38.21
1085.212	39.59
1085.63	40.26
1086.048	40.55
1086.466	40.16
1086.884	40.01
1087.302	39.37
1087.72	39.85
1088.138	39.61
1088.555	39.24
1088.973	39.5
1089.391	40.02
1089.809	39.64
1090.226	39.22
1090.644	38.51
1091.062	38.12
1091.479	38.8
1091.897	40.64
1092.314	39.77
1092.732	40.11
1093.15	39.62
1093.567	39.84
1093.984	41.24
1094.402	39.68
1094.819	39.33
1095.237	39.5
1095.654	38.63
1096.071	39.27
1096.488	39.48
1096.906	39.35
1097.323	39.35
1097.74	38.22
1098.157	41.38
1098.574	39.66
1098.991	39.15
1099.409	39.78
1099.826	38.35
1100.243	37.41
1100.66	39.53
1101.077	40.88
1101.494	39.15
1101.91	38.83
1102.327	36.87
1102.744	39.32
1103.161	38.57
1103.578	38.39
1103.994	39.54
1104.411	39.28
1104.828	37.1
1105.245	36.86
1105.661	39.49
1106.078	39.4
1106.494	38.15
1106.911	37.43
1107.328	38.27
1107.744	37.79
1108.161	37.24
1108.577	37.64
1108.993	36.07
1109.41	38.31
1109.826	39.59
1110.242	33.76
1110.659	37.74
1111.075	37.77
1111.491	38.94
1111.908	36.56
1112.324	38.81
1112.74	48.69
1113.156	40
1113.572	37.61
1113.988	37.35
1114.404	37.7
1114.82	34.88
1115.236	35.91
1115.652	37.52
1116.068	35.8
1116.484	34.12
1116.9	37.15
1117.316	40.95
1117.732	22.06
1118.147	25.61
1118.563	21.43
1118.979	206.25
