Data from JCR0017_YellowVentral_Reflection_00002.txt Node
Date: Thu Jul 23 16:15:20 ACST 2020
User: Stacey Dix
Spectrometer: MAYP113282
Scans to average: 1
Trigger mode: 0
Integration Time (sec): 1.000000E-1
Electric dark correction enabled: true
Boxcar width: 0
XAxis mode: Wavelengths
Number of Pixels in Spectrum: 2068
>>>>>Begin Spectral Data<<<<<
198.791	-133.33
199.266	233.33
199.74	166.67
200.215	0
200.69	16.89
201.164	0.47
201.639	14.65
202.114	29.76
202.588	15.41
203.063	30.62
203.537	30.3
204.012	19.94
204.486	29.63
204.961	28.85
205.435	6.09
205.909	26.08
206.384	22.81
206.858	30.22
207.332	18.37
207.807	7.84
208.281	38.31
208.755	16.54
209.229	10.82
209.703	30.94
210.177	12.84
210.651	24.01
211.126	26.91
211.6	13.38
212.074	31.98
212.548	23.23
213.021	15.9
213.495	44.21
213.969	23.09
214.443	14.79
214.917	19.27
215.391	26.74
215.864	12.4
216.338	13.44
216.812	17.22
217.286	17.25
217.759	26.08
218.233	17.42
218.706	20.68
219.18	14.77
219.654	15.46
220.127	21.65
220.6	24.55
221.074	24.6
221.547	21.44
222.021	19.85
222.494	23.73
222.967	18.15
223.441	9.03
223.914	24.9
224.387	17.25
224.86	21.13
225.334	14.99
225.807	14.66
226.28	17.06
226.753	14.56
227.226	15.54
227.699	10.79
228.172	16.77
228.645	16.3
229.118	15.31
229.591	15.64
230.064	13.37
230.537	16.47
231.01	16.95
231.482	16.63
231.955	18.72
232.428	15.75
232.901	14.93
233.373	15.26
233.846	15.47
234.319	16.16
234.791	13.78
235.264	12.29
235.736	13.62
236.209	13.32
236.681	14.95
237.154	13.33
237.626	13.86
238.099	14.72
238.571	14.33
239.044	13.76
239.516	14.85
239.988	12.1
240.46	14.61
240.933	12.9
241.405	11.95
241.877	12.7
242.349	13.79
242.821	13.66
243.293	11.47
243.765	13.61
244.237	13.13
244.71	13.37
245.181	12.39
245.653	13.03
246.125	12.13
246.597	11.62
247.069	12.02
247.541	12.61
248.013	12.99
248.485	12.59
248.956	11.97
249.428	11.48
249.9	11.2
250.371	12.89
250.843	10.34
251.315	11.39
251.786	11.98
252.258	10.95
252.729	11.65
253.201	11.88
253.672	11.29
254.144	11.17
254.615	10.83
255.086	11.45
255.558	10.98
256.029	11.16
256.5	11.72
256.972	10.97
257.443	11.08
257.914	11.25
258.385	11.97
258.856	11.92
259.327	11.18
259.799	11.22
260.27	11.23
260.741	11.68
261.212	10.36
261.683	11.22
262.154	10.48
262.624	10.76
263.095	10.96
263.566	11.77
264.037	11
264.508	11.06
264.979	10.9
265.449	11.17
265.92	10.95
266.391	10.97
266.861	10.99
267.332	11.59
267.803	10.75
268.273	11.23
268.744	11.17
269.214	10.71
269.685	10.68
270.155	10.7
270.626	12.03
271.096	10.9
271.566	11.65
272.037	10.74
272.507	11.38
272.977	9.2
273.448	10.23
273.918	10.7
274.388	10.89
274.858	11.24
275.328	11.15
275.798	11.45
276.268	10.33
276.738	10.98
277.208	9.91
277.678	11.81
278.148	11.79
278.618	11.11
279.088	11.03
279.558	11.58
280.028	10.19
280.498	11.19
280.968	10.98
281.437	10.72
281.907	11.34
282.377	10.2
282.847	9.92
283.316	10.97
283.786	10.7
284.255	10.8
284.725	10.71
285.194	10.3
285.664	11.11
286.133	10.54
286.603	10.44
287.072	10.14
287.542	10.7
288.011	10.71
288.48	10.61
288.95	10.73
289.419	12.3
289.888	11.56
290.357	10.76
290.827	10.59
291.296	10.4
291.765	11.24
292.234	10.31
292.703	10.69
293.172	11.06
293.641	10.9
294.11	11.08
294.579	11.55
295.048	11.56
295.517	11.11
295.986	10.44
296.455	11.55
296.923	11.62
297.392	10.86
297.861	11.21
298.33	10.71
298.798	11.02
299.267	10.86
299.736	10.89
300.204	10.02
300.673	10.52
301.141	10.67
301.61	11.39
302.079	10.53
302.547	11.56
303.015	10.87
303.484	10.5
303.952	11.59
304.421	11.34
304.889	11.23
305.357	11.26
305.825	11.78
306.294	10.82
306.762	13.02
307.23	11.63
307.698	12.23
308.166	11.41
308.634	12.77
309.103	11.31
309.571	11.55
310.039	12.11
310.507	12.23
310.975	11.1
311.442	11.51
311.91	11.34
312.378	11.68
312.846	12.04
313.314	12.8
313.782	11.87
314.249	12.18
314.717	13.1
315.185	13.11
315.652	12.13
316.12	12.98
316.588	13.04
317.055	12.23
317.523	13.3
317.99	12.74
318.458	13.89
318.925	13.15
319.393	12.75
319.86	13.79
320.328	14.2
320.795	13.45
321.262	14.54
321.73	13.87
322.197	13.57
322.664	13.12
323.131	13.7
323.598	14.55
324.066	14.88
324.533	13.45
325	14
325.467	15.82
325.934	14.13
326.401	13.42
326.868	13.82
327.335	14.48
327.802	15.23
328.269	14.74
328.735	15.24
329.202	14
329.669	15.19
330.136	15.02
330.603	15.04
331.069	14.4
331.536	15.07
332.003	14.7
332.469	15.11
332.936	14.69
333.402	14.14
333.869	15.03
334.336	14.77
334.802	15.4
335.268	15.33
335.735	15.29
336.201	14.66
336.668	15.51
337.134	14.95
337.6	14.12
338.067	15.52
338.533	16.13
338.999	15.33
339.465	15.28
339.931	15.16
340.398	14.86
340.864	15.02
341.33	15.01
341.796	15.04
342.262	14.31
342.728	15.02
343.194	14.39
343.66	15.03
344.126	14.66
344.592	14.82
345.057	14.9
345.523	15.12
345.989	14.31
346.455	14.75
346.921	15.5
347.386	14.92
347.852	15.1
348.318	14.44
348.783	14.23
349.249	14.82
349.714	14.56
350.18	14.46
350.645	14.64
351.111	14.25
351.576	14.31
352.042	15.25
352.507	14.73
352.973	13.47
353.438	14.54
353.903	13.64
354.369	13.28
354.834	14.2
355.299	14.64
355.764	15.02
356.229	14.67
356.695	13.77
357.16	14.2
357.625	14.12
358.09	13.93
358.555	14.69
359.02	13.66
359.485	13.08
359.95	13.96
360.415	14.29
360.879	12.5
361.344	13.04
361.809	13.84
362.274	13.93
362.739	13.37
363.203	13.73
363.668	13
364.133	13.14
364.597	13.76
365.062	12.39
365.527	12.63
365.991	13.09
366.456	13.27
366.92	12.79
367.385	12.91
367.849	12.41
368.314	12.98
368.778	13.44
369.242	13.83
369.707	13.13
370.171	13.41
370.635	13.2
371.1	12.21
371.564	12.35
372.028	13.54
372.492	12.55
372.956	12.37
373.42	12.49
373.884	12.77
374.348	12.25
374.812	12.42
375.276	12.51
375.74	12.51
376.204	13.24
376.668	13.26
377.132	12.55
377.596	11.31
378.06	11.89
378.524	11.51
378.987	11.52
379.451	12.19
379.915	11.73
380.378	12.94
380.842	11.85
381.306	11.78
381.769	12.27
382.233	12.16
382.696	11.73
383.16	11.95
383.623	12.12
384.087	11.81
384.55	11.18
385.014	12.98
385.477	11.37
385.94	13.36
386.404	11.44
386.867	11.41
387.33	11.7
387.793	11.33
388.256	11.06
388.72	12.28
389.183	11.16
389.646	11.9
390.109	11.31
390.572	12.12
391.035	11.62
391.498	11.37
391.961	10.82
392.424	11.8
392.887	10.89
393.35	11.12
393.812	11.07
394.275	11.22
394.738	11.37
395.201	11.12
395.664	10.99
396.126	10.15
396.589	11.32
397.052	10.87
397.514	10.43
397.977	10.69
398.439	10.89
398.902	10.2
399.364	10.33
399.827	10.41
400.289	10.79
400.752	10.83
401.214	10.56
401.676	9.98
402.139	10.6
402.601	10.8
403.063	10.69
403.525	10.02
403.988	10.08
404.45	10.71
404.912	10.89
405.374	10.17
405.836	10.37
406.298	10.48
406.76	9.55
407.222	10.67
407.684	10.17
408.146	10.46
408.608	10.69
409.07	10.57
409.532	9.76
409.994	10.03
410.456	10.32
410.917	10.34
411.379	10.82
411.841	10.15
412.303	10.63
412.764	9.61
413.226	10.26
413.687	10.31
414.149	10.73
414.611	10.1
415.072	10.25
415.534	10.47
415.995	11.07
416.457	10.03
416.918	9.69
417.379	9.77
417.841	10.28
418.302	9.99
418.763	10.16
419.225	10.07
419.686	9.44
420.147	10.28
420.608	10
421.069	9.61
421.53	10
421.991	10.56
422.453	10.08
422.914	10.81
423.375	8.39
423.836	10.06
424.297	9.94
424.757	9.79
425.218	10
425.679	9.5
426.14	11.32
426.601	10.09
427.062	10.86
427.522	9.94
427.983	8.87
428.444	10.49
428.904	9.1
429.365	9.48
429.826	10.41
430.286	10.47
430.747	10.68
431.207	10.59
431.668	9.84
432.128	9.98
432.589	9.55
433.049	10.87
433.509	10.96
433.97	10.81
434.43	10.41
434.89	10.89
435.351	11.5
435.811	9.06
436.271	9.04
436.731	10.22
437.191	10.79
437.651	10.73
438.112	10.07
438.572	9.73
439.032	9.73
439.492	11.65
439.952	10.39
440.412	11.28
440.871	10.5
441.331	10.36
441.791	11.11
442.251	10.85
442.711	10.58
443.171	11.56
443.63	10.05
444.09	10.98
444.55	10.5
445.009	11.15
445.469	10.65
445.929	10.19
446.388	11.06
446.848	11.39
447.307	11.54
447.767	11.72
448.226	10.18
448.686	10.66
449.145	12.02
449.604	10.57
450.064	11.92
450.523	10.4
450.982	12.32
451.442	9.39
451.901	11.2
452.36	9.88
452.819	11.02
453.278	11.35
453.737	11.4
454.197	11.25
454.656	10.83
455.115	10.25
455.574	12.34
456.033	12.06
456.492	11.95
456.95	11.41
457.409	11.9
457.868	11.74
458.327	12.2
458.786	9.99
459.245	9.96
459.703	10.87
460.162	12.44
460.621	10.97
461.079	11.49
461.538	11.54
461.997	11.38
462.455	12.41
462.914	10.57
463.372	12.21
463.831	13.06
464.289	10.96
464.748	12.61
465.206	12.61
465.664	11.2
466.123	11.5
466.581	10.97
467.039	13.08
467.497	11.82
467.956	12.01
468.414	12.29
468.872	12.76
469.33	12.61
469.788	13.97
470.246	12.76
470.704	14.41
471.162	13.15
471.62	13.58
472.078	12.86
472.536	14.86
472.994	13.78
473.452	14.33
473.91	14.42
474.368	14.15
474.826	15.83
475.283	13.98
475.741	15.13
476.199	15.65
476.656	15.55
477.114	15.26
477.572	15
478.029	15.38
478.487	15.82
478.944	15.89
479.402	16.68
479.859	17.12
480.317	14.99
480.774	18.27
481.232	16.22
481.689	16.95
482.146	18.16
482.604	17
483.061	17.96
483.518	17.95
483.975	19.12
484.433	17.36
484.89	18.43
485.347	18.3
485.804	19.45
486.261	19.51
486.718	20.5
487.175	19.91
487.632	20.24
488.089	20.44
488.546	22.21
489.003	22.34
489.46	22.38
489.917	20.25
490.373	21.98
490.83	20.99
491.287	21.87
491.744	22.99
492.2	22.37
492.657	22.54
493.114	22.9
493.57	23.07
494.027	24.78
494.484	23.19
494.94	24.38
495.397	23.96
495.853	24.1
496.31	23.08
496.766	24.01
497.222	23.98
497.679	23.87
498.135	23.72
498.591	24.29
499.048	23.49
499.504	24.13
499.96	25.6
500.416	26.75
500.872	25.23
501.329	24.78
501.785	23.15
502.241	25.89
502.697	24.86
503.153	24.82
503.609	24.62
504.065	25.75
504.521	26.06
504.977	25.48
505.432	24.79
505.888	25.57
506.344	23.68
506.8	24.72
507.256	25.24
507.711	26.44
508.167	26.76
508.623	26.12
509.078	27.09
509.534	26.26
509.99	26.99
510.445	25.82
510.901	24.96
511.356	27.01
511.812	26.8
512.267	26.37
512.722	26.69
513.178	26.64
513.633	26.54
514.089	26.22
514.544	27.06
514.999	26.95
515.454	26.74
515.91	26.31
516.365	26.28
516.82	26.89
517.275	26.82
517.73	27.65
518.185	27.95
518.64	26.88
519.095	27.46
519.55	26.68
520.005	27.31
520.46	27.13
520.915	26.66
521.37	27.11
521.825	28.45
522.28	28.09
522.734	27.49
523.189	27.46
523.644	26.99
524.099	27.28
524.553	28.29
525.008	27.13
525.462	27.2
525.917	27.55
526.372	26.02
526.826	27.74
527.281	27.34
527.735	26.64
528.19	25.88
528.644	28.25
529.098	28.28
529.553	28.41
530.007	28.25
530.461	27.46
530.916	28.65
531.37	28.45
531.824	28.49
532.278	27.93
532.732	27.72
533.186	28.15
533.641	26.79
534.095	27.82
534.549	29.17
535.003	28.91
535.457	28.51
535.911	28.49
536.365	27.68
536.818	28.41
537.272	27.66
537.726	27.45
538.18	28.83
538.634	27.57
539.087	28.19
539.541	28.78
539.995	26.34
540.449	27.34
540.902	29.07
541.356	28.18
541.809	27.73
542.263	27.32
542.716	28.43
543.17	28.37
543.623	28.41
544.077	28.32
544.53	27.67
544.984	28.57
545.437	27.96
545.89	27.72
546.344	29.87
546.797	27.38
547.25	28.67
547.703	27.41
548.157	29.8
548.61	27.53
549.063	29.44
549.516	29.16
549.969	28.25
550.422	28.89
550.875	29.26
551.328	28.29
551.781	26.5
552.234	28.94
552.687	28.94
553.14	28.67
553.592	27.24
554.045	27.48
554.498	29.2
554.951	29.34
555.404	29.49
555.856	27.69
556.309	27.43
556.762	28.28
557.214	28.07
557.667	29.43
558.119	29
558.572	29
559.024	29.06
559.477	27.94
559.929	30.4
560.382	28.94
560.834	30.01
561.286	29.38
561.739	29.43
562.191	28.53
562.643	29.15
563.095	28.93
563.548	28.72
564	28.84
564.452	29.44
564.904	29.1
565.356	29.04
565.808	29.7
566.26	28.72
566.712	28.9
567.164	28.82
567.616	29.78
568.068	29.33
568.52	29.88
568.972	30.18
569.424	29.29
569.876	30.19
570.327	28.06
570.779	28.98
571.231	30.11
571.682	29.25
572.134	29.86
572.586	29.21
573.037	28.72
573.489	29.21
573.941	28.83
574.392	29.82
574.844	29.33
575.295	29.77
575.746	30.44
576.198	29.5
576.649	29.43
577.101	29.24
577.552	29.56
578.003	29.3
578.454	29.53
578.906	30.1
579.357	29.64
579.808	30.03
580.259	29.12
580.71	29.86
581.161	30.84
581.612	29.21
582.064	29.8
582.515	28.79
582.965	29.3
583.416	28.98
583.867	29.5
584.318	30.39
584.769	30.25
585.22	29.97
585.671	30.2
586.122	30.58
586.572	29.5
587.023	29.95
587.474	29.09
587.924	30.05
588.375	29.66
588.826	29.18
589.276	30.78
589.727	29.23
590.177	30.57
590.628	29.15
591.078	29.37
591.529	29.73
591.979	30.39
592.429	29.55
592.88	30.73
593.33	30.19
593.78	30.74
594.231	30.5
594.681	29.22
595.131	29.44
595.581	30.55
596.031	29.86
596.481	29.95
596.932	29.08
597.382	31.05
597.832	30.14
598.282	30.52
598.732	30.62
599.182	29.65
599.632	30.73
600.081	30.45
600.531	29.85
600.981	30.07
601.431	29.29
601.881	29.68
602.33	30.04
602.78	30.02
603.23	29.82
603.679	30.99
604.129	30.09
604.579	30.77
605.028	29.91
605.478	30.34
605.927	30.07
606.377	30.92
606.826	29.96
607.276	30.29
607.725	29.58
608.175	30.6
608.624	29.69
609.073	29.75
609.522	28.71
609.972	30.27
610.421	30.72
610.87	30.24
611.319	29.56
611.768	31.12
612.218	30.54
612.667	30.8
613.116	29.56
613.565	29.97
614.014	31.12
614.463	30.42
614.912	31.09
615.361	31.31
615.81	30.99
616.258	30.27
616.707	30.75
617.156	30.14
617.605	31.34
618.054	30.32
618.502	31.13
618.951	29.92
619.4	30.69
619.848	30.76
620.297	30.45
620.745	30.13
621.194	31.18
621.642	30.73
622.091	30.04
622.539	29.46
622.988	30.81
623.436	30.72
623.885	30.6
624.333	30.17
624.781	29.82
625.23	30.4
625.678	30.43
626.126	30.96
626.574	31.03
627.022	31.25
627.471	30.46
627.919	30.01
628.367	30.8
628.815	30.46
629.263	30.28
629.711	30.27
630.159	30.63
630.607	30.62
631.055	30.66
631.503	31.31
631.95	30.54
632.398	30.16
632.846	29.87
633.294	29.5
633.742	30.78
634.189	30.12
634.637	31.11
635.085	30.76
635.532	30.37
635.98	30.59
636.427	30.96
636.875	31.2
637.323	31.04
637.77	30.44
638.217	30.9
638.665	30.86
639.112	30.85
639.56	30.45
640.007	30.57
640.454	30.83
640.902	30.24
641.349	30.8
641.796	30
642.243	30.23
642.69	30.74
643.138	30.29
643.585	30.37
644.032	30.15
644.479	29.33
644.926	31.36
645.373	30.25
645.82	30.72
646.267	30.41
646.714	30.39
647.161	30.11
647.607	30.58
648.054	29.78
648.501	31.07
648.948	30.09
649.395	31.25
649.841	31.11
650.288	30.29
650.735	30.23
651.181	31.11
651.628	30.86
652.075	29.64
652.521	30.45
652.968	30.66
653.414	30.44
653.861	30.97
654.307	31.1
654.753	31.15
655.2	30.86
655.646	30.75
656.092	30.5
656.539	31
656.985	30.53
657.431	30.76
657.877	30.88
658.324	30.89
658.77	31.27
659.216	30.69
659.662	30.78
660.108	30.56
660.554	30.89
661	31.01
661.446	30.42
661.892	31.59
662.338	30.16
662.784	31.28
663.23	30.71
663.675	30.16
664.121	30.65
664.567	31.17
665.013	31.45
665.458	30.1
665.904	30.78
666.35	30.29
666.795	31.34
667.241	30.27
667.687	30.2
668.132	30.81
668.578	31.6
669.023	30.84
669.469	30.91
669.914	30.84
670.359	30.48
670.805	30.23
671.25	30.59
671.695	30.43
672.141	30.63
672.586	30.8
673.031	30.96
673.476	30.73
673.922	31.29
674.367	30.07
674.812	30.83
675.257	30.25
675.702	30.56
676.147	31.12
676.592	30.84
677.037	30.77
677.482	30.63
677.927	30.29
678.372	30.77
678.817	31.38
679.261	30.4
679.706	30.67
680.151	30.98
680.596	30.8
681.04	30.38
681.485	31.42
681.93	31.14
682.374	30.7
682.819	29.95
683.264	30.37
683.708	30.94
684.153	31.22
684.597	30.55
685.042	31.47
685.486	30.12
685.93	29.71
686.375	30.29
686.819	30.49
687.263	31.04
687.708	30.02
688.152	30.12
688.596	30.61
689.04	30.96
689.485	30.65
689.929	30.97
690.373	30.84
690.817	31.02
691.261	30.41
691.705	30.68
692.149	31.12
692.593	30.79
693.037	31.16
693.481	30.56
693.925	30.87
694.369	30.38
694.812	30.83
695.256	29.95
695.7	31.23
696.144	30.53
696.587	30.31
697.031	31.02
697.475	30.37
697.918	30.51
698.362	30.64
698.806	31.1
699.249	31.21
699.693	30.97
700.136	30.89
700.58	30.42
701.023	30.23
701.466	31.37
701.91	30.27
702.353	31.02
702.796	31.16
703.24	30.63
703.683	30.46
704.126	30.86
704.569	31.13
705.013	30.98
705.456	31.23
705.899	30.92
706.342	31.07
706.785	30.55
707.228	29.96
707.671	30.06
708.114	31.27
708.557	30.83
709	30.45
709.443	30.21
709.886	30.7
710.328	30.45
710.771	30.79
711.214	30.66
711.657	30.09
712.099	30.23
712.542	29.84
712.985	30.13
713.427	30.23
713.87	30.79
714.313	30.66
714.755	31.06
715.198	31.05
715.64	31.02
716.083	31.26
716.525	30.31
716.967	30.39
717.41	30.23
717.852	30.9
718.295	30.77
718.737	30.19
719.179	31.33
719.621	31.05
720.063	30.4
720.506	30.41
720.948	31.32
721.39	30.49
721.832	30.45
722.274	30.99
722.716	31.58
723.158	30.41
723.6	30.64
724.042	31.47
724.484	30.95
724.926	30.76
725.368	30.17
725.81	30.75
726.251	30.7
726.693	30.54
727.135	29.93
727.577	30.35
728.018	30.45
728.46	29.94
728.902	30.13
729.343	30.05
729.785	30.65
730.226	31.12
730.668	29.93
731.109	29.72
731.551	30.43
731.992	30.48
732.434	30.05
732.875	29.99
733.316	30.6
733.758	29.87
734.199	30.26
734.64	30.62
735.081	29.85
735.523	30.35
735.964	30.32
736.405	30.92
736.846	30.17
737.287	30.25
737.728	30.35
738.169	30.36
738.61	30.47
739.051	30.6
739.492	29.86
739.933	30.83
740.374	29.6
740.815	30.69
741.256	29.97
741.696	29.49
742.137	30.34
742.578	30.02
743.019	29.65
743.459	30.27
743.9	31.05
744.341	30.4
744.781	29.36
745.222	29.86
745.662	30.49
746.103	30.28
746.543	29.87
746.984	30.19
747.424	29.9
747.865	30.47
748.305	29.79
748.745	30.47
749.186	30.09
749.626	29.58
750.066	29.89
750.506	30.52
750.947	29.59
751.387	30.29
751.827	30.18
752.267	30.42
752.707	29.63
753.147	30.7
753.587	29.95
754.027	29.89
754.467	30.28
754.907	30.57
755.347	30.08
755.787	30.64
756.227	30.36
756.667	30.52
757.107	30.44
757.546	30.19
757.986	30.11
758.426	29.94
758.865	29.89
759.305	29.67
759.745	29.66
760.184	29.88
760.624	30.18
761.063	30.13
761.503	30.48
761.943	29.89
762.382	29.81
762.821	30.21
763.261	30.36
763.7	30.21
764.14	29.8
764.579	30.08
765.018	30.5
765.457	29.86
765.897	30.02
766.336	29.33
766.775	29.66
767.214	29.75
767.653	30.01
768.092	30.02
768.531	29.97
768.97	29.83
769.409	29.35
769.848	30.52
770.287	29.53
770.726	29.96
771.165	29.96
771.604	29.66
772.043	29.25
772.482	29.9
772.92	29.9
773.359	29.86
773.798	29.87
774.237	29.42
774.675	30.26
775.114	29.77
775.553	29.87
775.991	29.83
776.43	29.67
776.868	29.65
777.307	30.21
777.745	29.62
778.184	30.31
778.622	29.71
779.06	29.96
779.499	29.79
779.937	30.28
780.375	29.27
780.814	30.8
781.252	29.86
781.69	29.35
782.128	29.68
782.566	29.32
783.004	29.99
783.443	29.58
783.881	29.29
784.319	30.21
784.757	29.63
785.195	29.62
785.633	29.48
786.071	29.96
786.508	29.7
786.946	29.66
787.384	29.6
787.822	29.93
788.26	29.42
788.697	29.65
789.135	29.54
789.573	29.81
790.011	29.65
790.448	29.38
790.886	30.05
791.323	29.33
791.761	29.57
792.198	29.79
792.636	29.52
793.073	29.13
793.511	29.19
793.948	29.65
794.386	29.56
794.823	29.84
795.26	29.09
795.698	29.37
796.135	29.21
796.572	29.88
797.009	29.01
797.446	29.28
797.884	29.48
798.321	28.93
798.758	29.4
799.195	29.46
799.632	29.38
800.069	29.16
800.506	29.03
800.943	29.11
801.38	29.76
801.817	29.29
802.254	29.73
802.69	29.01
803.127	29.47
803.564	29.34
804.001	29.26
804.438	29.57
804.874	29.59
805.311	29.12
805.748	28.97
806.184	29.1
806.621	28.8
807.057	29.07
807.494	29.24
807.93	29.52
808.367	29.79
808.803	28.82
809.24	29.21
809.676	28.89
810.112	28.77
810.549	29.28
810.985	29.19
811.421	29.37
811.857	29.1
812.294	29.38
812.73	29.26
813.166	29.27
813.602	29.23
814.038	29.35
814.474	29.04
814.91	29.25
815.346	29.23
815.782	28.92
816.218	29.16
816.654	29.27
817.09	29.03
817.526	29.1
817.962	29.16
818.398	29.3
818.833	29.21
819.269	28.77
819.705	29.02
820.141	29.38
820.576	28.77
821.012	29.44
821.447	29.32
821.883	29.38
822.319	29.2
822.754	28.67
823.19	28.83
823.625	28.84
824.061	29.11
824.496	28.96
824.931	29.24
825.367	28.61
825.802	29.31
826.237	29.32
826.673	28.73
827.108	29.51
827.543	29.43
827.978	29.06
828.413	29.04
828.849	29.02
829.284	29.24
829.719	29.26
830.154	28.82
830.589	29.05
831.024	29
831.459	28.46
831.894	29.05
832.329	29.12
832.763	28.81
833.198	29.03
833.633	28.93
834.068	28.81
834.503	28.61
834.937	28.76
835.372	29.33
835.807	29.17
836.241	28.56
836.676	28.97
837.111	28.29
837.545	28.99
837.98	28.5
838.414	28.42
838.849	28.49
839.283	28.86
839.717	28.64
840.152	28.65
840.586	28.88
841.021	28.43
841.455	28.93
841.889	28.7
842.323	28.47
842.758	29.04
843.192	28.51
843.626	28.73
844.06	28.57
844.494	28.8
844.928	28.37
845.362	28.32
845.796	28.48
846.23	28.7
846.664	28.35
847.098	28.7
847.532	28.85
847.966	28.62
848.4	28.83
848.834	28.58
849.267	28.07
849.701	28.26
850.135	28.21
850.569	28.3
851.002	28.21
851.436	28.69
851.87	28.78
852.303	28.42
852.737	28.5
853.17	28.44
853.604	28.79
854.037	28.44
854.471	28.2
854.904	27.94
855.337	28.52
855.771	28.66
856.204	28.76
856.637	28.22
857.071	28.45
857.504	28.61
857.937	28.36
858.37	28.58
858.804	28.54
859.237	28.4
859.67	28.26
860.103	28.55
860.536	28.29
860.969	28.22
861.402	27.92
861.835	28.52
862.268	28.1
862.701	27.55
863.134	28.16
863.566	28.37
863.999	28.23
864.432	27.91
864.865	28.4
865.298	28.22
865.73	28.06
866.163	28.6
866.596	28.36
867.028	28.27
867.461	27.97
867.893	27.95
868.326	28.23
868.758	27.67
869.191	28.5
869.623	28.6
870.056	28.13
870.488	28.15
870.92	28.19
871.353	27.85
871.785	27.81
872.217	27.61
872.65	27.91
873.082	28.04
873.514	28.5
873.946	28.13
874.378	27.82
874.81	27.68
875.243	27.86
875.675	28.26
876.107	27.8
876.539	27.72
876.971	27.38
877.403	27.92
877.834	27.75
878.266	28.09
878.698	27.99
879.13	28.09
879.562	28.02
879.994	27.98
880.425	27.72
880.857	27.9
881.289	28.11
881.72	28.13
882.152	27.82
882.584	27.76
883.015	28.06
883.447	27.74
883.878	27.95
884.31	28.03
884.741	27.37
885.173	27.33
885.604	27.71
886.035	27.7
886.467	28
886.898	27.39
887.329	27.43
887.76	28.06
888.192	27.29
888.623	27.9
889.054	28.08
889.485	27.37
889.916	27.13
890.347	27.57
890.778	27
891.209	27.28
891.64	27.44
892.071	27.81
892.502	27.85
892.933	27.83
893.364	27.49
893.795	27.56
894.226	27.45
894.657	27.11
895.087	27.59
895.518	27.61
895.949	27.81
896.38	27.53
896.81	27.67
897.241	27.61
897.671	27.82
898.102	27.66
898.533	27.66
898.963	27.65
899.394	27.52
899.824	27.68
900.254	27.5
900.685	27.43
901.115	27.14
901.546	27.51
901.976	27.38
902.406	27.21
902.836	27.23
903.267	27.56
903.697	27.29
904.127	27.31
904.557	27.07
904.987	27.4
905.417	27.31
905.847	27.48
906.277	27.33
906.707	27.18
907.137	27.08
907.567	27.05
907.997	27.19
908.427	27.21
908.857	27.57
909.287	27.2
909.717	26.69
910.146	27.14
910.576	27.22
911.006	27.04
911.436	26.74
911.865	27.06
912.295	27.45
912.724	27.48
913.154	27.22
913.584	27.03
914.013	27.58
914.443	27.01
914.872	27.06
915.302	27.09
915.731	26.96
916.16	27.19
916.59	27.01
917.019	27.11
917.448	27.24
917.878	27
918.307	26.87
918.736	27
919.165	27.2
919.594	26.69
920.023	27.33
920.452	26.98
920.882	26.61
921.311	26.9
921.74	27.14
922.169	26.93
922.597	26.97
923.026	26.92
923.455	27.06
923.884	26.45
924.313	27.26
924.742	26.77
925.171	27.07
925.599	27.04
926.028	26.69
926.457	26.99
926.885	26.61
927.314	26.75
927.743	26.79
928.171	26.79
928.6	27.16
929.028	26.65
929.457	26.71
929.885	26.76
930.314	26.85
930.742	26.92
931.17	26.75
931.599	26.48
932.027	26.82
932.455	26.77
932.884	27.05
933.312	26.75
933.74	26.58
934.168	26.46
934.596	26.97
935.025	26.43
935.453	26.89
935.881	26.59
936.309	27.02
936.737	26.4
937.165	26.39
937.593	26.48
938.021	26.84
938.449	25.88
938.876	26.67
939.304	26.35
939.732	26.03
940.16	26.07
940.588	26.41
941.015	26.66
941.443	26.28
941.871	26.71
942.298	25.83
942.726	26.14
943.154	26.11
943.581	25.91
944.009	26.22
944.436	26.83
944.864	26.78
945.291	25.81
945.718	26.14
946.146	25.97
946.573	26.35
947.001	26.15
947.428	26.2
947.855	26.2
948.282	26.26
948.71	25.86
949.137	26.32
949.564	25.61
949.991	25.78
950.418	26.4
950.845	26.32
951.272	25.87
951.699	25.92
952.126	25.8
952.553	25.77
952.98	26
953.407	25.74
953.834	25.45
954.261	26.41
954.688	25.82
955.114	25.77
955.541	26.06
955.968	25.75
956.395	25.84
956.821	25.64
957.248	25.51
957.674	25.78
958.101	25.94
958.528	25.69
958.954	25.58
959.381	25.92
959.807	25.88
960.234	25.46
960.66	25.52
961.086	25.75
961.513	25.44
961.939	25.7
962.365	25.74
962.792	25.45
963.218	25.87
963.644	25.49
964.07	25.31
964.496	25.54
964.923	25.37
965.349	25.31
965.775	25.35
966.201	25.65
966.627	25.62
967.053	25.34
967.479	25.33
967.905	25.34
968.331	25.52
968.756	25.22
969.182	25.3
969.608	25.29
970.034	25.27
970.46	25.45
970.885	25.44
971.311	25.19
971.737	25.41
972.162	25.59
972.588	25.29
973.014	25.33
973.439	25.16
973.865	25.15
974.29	25.14
974.716	25.17
975.141	25.58
975.567	25.56
975.992	25.55
976.417	25.34
976.843	25.17
977.268	25.04
977.693	24.91
978.119	25.21
978.544	25.09
978.969	24.93
979.394	25.28
979.819	25.06
980.244	25
980.669	25.05
981.095	25.01
981.52	25.26
981.945	25.28
982.369	25.24
982.794	25.31
983.219	25.4
983.644	25.16
984.069	25.17
984.494	25.17
984.919	25.37
985.343	24.93
985.768	24.95
986.193	24.87
986.618	25.18
987.042	25.12
987.467	25.13
987.891	25.07
988.316	25.27
988.741	25.03
989.165	25.07
989.59	24.95
990.014	24.84
990.438	24.94
990.863	25.06
991.287	24.96
991.712	24.74
992.136	25.1
992.56	25.05
992.984	24.93
993.409	24.86
993.833	24.82
994.257	24.86
994.681	24.56
995.105	25.01
995.529	24.71
995.953	24.66
996.377	24.56
996.801	24.86
997.225	24.77
997.649	24.7
998.073	25.02
998.497	24.74
998.921	24.81
999.345	24.8
999.769	24.96
1000.192	24.71
1000.616	25
1001.04	25.13
1001.464	24.7
1001.887	24.72
1002.311	24.68
1002.734	24.94
1003.158	25
1003.582	24.84
1004.005	24.76
1004.429	24.77
1004.852	24.87
1005.275	24.66
1005.699	24.87
1006.122	24.69
1006.546	24.69
1006.969	24.76
1007.392	24.55
1007.815	24.77
1008.239	24.68
1008.662	24.67
1009.085	24.54
1009.508	24.7
1009.931	24.3
1010.354	24.66
1010.778	24.7
1011.201	24.91
1011.624	24.61
1012.047	24.26
1012.469	24.74
1012.892	24.82
1013.315	24.48
1013.738	24.86
1014.161	24.25
1014.584	24.48
1015.007	24.39
1015.429	24.51
1015.852	24.36
1016.275	24.48
1016.697	24.62
1017.12	24.64
1017.543	24.56
1017.965	24.74
1018.388	24.57
1018.81	24.58
1019.233	24.52
1019.655	24.43
1020.078	24.72
1020.5	24.58
1020.922	24.3
1021.345	24.33
1021.767	24.28
1022.189	24.78
1022.612	24.45
1023.034	24.13
1023.456	24.58
1023.878	24.49
1024.301	24.56
1024.723	24.39
1025.145	24.67
1025.567	24.49
1025.989	24.47
1026.411	24.48
1026.833	24.58
1027.255	24.47
1027.677	24.21
1028.099	24.21
1028.52	24.53
1028.942	24.02
1029.364	24.03
1029.786	24.23
1030.208	24.27
1030.629	24.53
1031.051	24.32
1031.473	24.19
1031.894	24.45
1032.316	24.31
1032.738	24.18
1033.159	24.19
1033.581	24.08
1034.002	24.24
1034.424	24.67
1034.845	24.13
1035.267	24.37
1035.688	24.59
1036.109	24.28
1036.531	24.24
1036.952	24.36
1037.373	24.24
1037.794	24.08
1038.216	24.33
1038.637	24.06
1039.058	24.4
1039.479	24.48
1039.9	24.11
1040.321	23.99
1040.742	24.28
1041.163	24.22
1041.584	23.86
1042.005	24.24
1042.426	24.42
1042.847	23.63
1043.268	24.07
1043.689	23.89
1044.11	24.33
1044.53	24.05
1044.951	24.22
1045.372	24.23
1045.793	23.79
1046.213	24.2
1046.634	24.34
1047.055	24.26
1047.475	24.43
1047.896	24.09
1048.316	24.36
1048.737	24.34
1049.157	24.09
1049.578	23.89
1049.998	24.16
1050.419	24.11
1050.839	24.05
1051.259	23.97
1051.68	24.3
1052.1	23.77
1052.52	24
1052.94	24.05
1053.361	24.62
1053.781	23.82
1054.201	23.88
1054.621	23.99
1055.041	23.62
1055.461	23.64
1055.881	23.54
1056.301	24.02
1056.721	24.05
1057.141	23.76
1057.561	23.82
1057.981	23.68
1058.401	23.55
1058.82	24.29
1059.24	23.8
1059.66	24.04
1060.08	23.68
1060.499	23.75
1060.919	24.35
1061.339	23.73
1061.758	23.68
1062.178	23.95
1062.598	23.74
1063.017	24.06
1063.437	24.12
1063.856	23.75
1064.276	23.76
1064.695	23.34
1065.114	23.57
1065.534	23.62
1065.953	23.75
1066.372	23.35
1066.792	23.56
1067.211	23.39
1067.63	23.39
1068.049	23.3
1068.469	23.98
1068.888	23.96
1069.307	23.67
1069.726	23.82
1070.145	23.86
1070.564	23.54
1070.983	23.19
1071.402	24.38
1071.821	24.06
1072.24	23.39
1072.659	23.37
1073.078	23.52
1073.496	23.49
1073.915	24.21
1074.334	23.9
1074.753	23.48
1075.171	23.47
1075.59	23.29
1076.009	23.47
1076.427	23.64
1076.846	23.17
1077.265	23.72
1077.683	23.08
1078.102	23.86
1078.52	23.1
1078.939	23.96
1079.357	23.5
1079.776	23.01
1080.194	23.14
1080.612	23.25
1081.031	23.34
1081.449	23.49
1081.867	21.26
1082.285	22.65
1082.704	22.64
1083.122	23.09
1083.54	23.03
1083.958	23.45
1084.376	23.56
1084.794	23.13
1085.212	23.38
1085.63	22.83
1086.048	22.87
1086.466	23.41
1086.884	23.57
1087.302	22.75
1087.72	22.95
1088.138	23.96
1088.555	23
1088.973	23.58
1089.391	23.6
1089.809	22.89
1090.226	22.61
1090.644	22.41
1091.062	22.53
1091.479	23.43
1091.897	22.26
1092.314	23.45
1092.732	22.75
1093.15	23.1
1093.567	22.52
1093.984	23.04
1094.402	23.69
1094.819	22.63
1095.237	23.12
1095.654	23.02
1096.071	23.1
1096.488	22.88
1096.906	23.04
1097.323	23.26
1097.74	22.48
1098.157	22.97
1098.574	23.05
1098.991	23.28
1099.409	22.11
1099.826	22.42
1100.243	23.26
1100.66	24.07
1101.077	23.08
1101.494	24.79
1101.91	23.61
1102.327	23.38
1102.744	23.11
1103.161	23.23
1103.578	23.01
1103.994	22.07
1104.411	23.28
1104.828	23.33
1105.245	23.22
1105.661	22.31
1106.078	22.68
1106.494	22.61
1106.911	22.51
1107.328	21.54
1107.744	24.17
1108.161	21.93
1108.577	20.98
1108.993	22.45
1109.41	24.57
1109.826	22.17
1110.242	22.27
1110.659	24.04
1111.075	22.55
1111.491	24.11
1111.908	20.95
1112.324	22.52
1112.74	17.17
1113.156	20.6
1113.572	22.73
1113.988	20.03
1114.404	22.89
1114.82	19.67
1115.236	20.81
1115.652	22.19
1116.068	22.46
1116.484	19.05
1116.9	23.43
1117.316	21.74
1117.732	20.51
1118.147	22.22
1118.563	83.33
1118.979	-66.67
