Data from JCR0009_Black1_Reflection_00001.txt Node
Date: Wed Jul 22 16:40:20 ACST 2020
User: Stacey Dix
Spectrometer: MAYP113282
Scans to average: 1
Trigger mode: 0
Integration Time (sec): 1.000000E-1
Electric dark correction enabled: true
Boxcar width: 0
XAxis mode: Wavelengths
Number of Pixels in Spectrum: 2068
>>>>>Begin Spectral Data<<<<<
198.791	-624
199.266	221.05
199.74	26.09
200.215	-0
200.69	108.39
201.164	79.85
201.639	63.44
202.114	84.89
202.588	43.53
203.063	72.37
203.537	56.45
204.012	69.41
204.486	91.81
204.961	43.34
205.435	49.38
205.909	66.84
206.384	58.91
206.858	66.19
207.332	46.03
207.807	108.36
208.281	70.02
208.755	67.81
209.229	74.01
209.703	47.09
210.177	69.45
210.651	37.88
211.126	77.81
211.6	50.13
212.074	59.2
212.548	48
213.021	52.43
213.495	54.25
213.969	57.95
214.443	79.06
214.917	60.39
215.391	53.77
215.864	53.96
216.338	53.36
216.812	47.34
217.286	20.24
217.759	52.42
218.233	40.89
218.706	45.53
219.18	35.48
219.654	37.67
220.127	42.8
220.6	45.91
221.074	26.35
221.547	37.56
222.021	23.88
222.494	23.23
222.967	33.6
223.441	35.67
223.914	47.14
224.387	26.4
224.86	18.41
225.334	22.7
225.807	31.94
226.28	21.58
226.753	27.07
227.226	21.14
227.699	13.57
228.172	23.06
228.645	17.74
229.118	21.63
229.591	13.48
230.064	15.48
230.537	14.53
231.01	13.1
231.482	11.37
231.955	16.52
232.428	13.13
232.901	7.99
233.373	12.08
233.846	10.18
234.319	12.55
234.791	11.88
235.264	9.05
235.736	9.21
236.209	11.75
236.681	11.66
237.154	9.4
237.626	7.29
238.099	9.16
238.571	7.23
239.044	7.53
239.516	9.2
239.988	7.09
240.46	8.28
240.933	6.41
241.405	7.95
241.877	5.24
242.349	5.58
242.821	7.83
243.293	7.11
243.765	7.42
244.237	6.43
244.71	8.28
245.181	7.46
245.653	9
246.125	7.14
246.597	7.86
247.069	6.91
247.541	8.75
248.013	5.21
248.485	9.07
248.956	8.6
249.428	6.3
249.9	7.55
250.371	6.77
250.843	6.97
251.315	6.91
251.786	5.9
252.258	5.93
252.729	5.55
253.201	6.14
253.672	5.67
254.144	3.27
254.615	5.36
255.086	5.28
255.558	4.43
256.029	4.68
256.5	5.18
256.972	4.13
257.443	4.66
257.914	5.06
258.385	4.57
258.856	4.16
259.327	4.01
259.799	5.24
260.27	4.67
260.741	5.08
261.212	4.68
261.683	4.7
262.154	4.21
262.624	2.91
263.095	3.3
263.566	3.36
264.037	3.56
264.508	4.24
264.979	4.32
265.449	5.55
265.92	3.84
266.391	4.93
266.861	3.64
267.332	6.36
267.803	3.73
268.273	4.04
268.744	4.28
269.214	3.9
269.685	4.71
270.155	4.5
270.626	5.18
271.096	6.28
271.566	5.45
272.037	4.99
272.507	5.61
272.977	4.38
273.448	4.06
273.918	6.03
274.388	6.39
274.858	4.69
275.328	3.79
275.798	5.16
276.268	5.83
276.738	5.47
277.208	3.88
277.678	6.17
278.148	6.53
278.618	4.62
279.088	3.23
279.558	4.11
280.028	5.24
280.498	5
280.968	5.33
281.437	5.1
281.907	3.17
282.377	5.48
282.847	4.98
283.316	4.68
283.786	4.16
284.255	4.48
284.725	3.75
285.194	4.87
285.664	4.68
286.133	3.57
286.603	4.62
287.072	3.69
287.542	4.73
288.011	4.94
288.48	4.42
288.95	3.06
289.419	4.12
289.888	4.14
290.357	4.74
290.827	3.84
291.296	2.88
291.765	4.45
292.234	5.12
292.703	4.42
293.172	4.61
293.641	3.76
294.11	4.1
294.579	4.45
295.048	5.17
295.517	4.74
295.986	4.03
296.455	4.91
296.923	4.5
297.392	3.59
297.861	3.38
298.33	3.79
298.798	4
299.267	5.64
299.736	4.26
300.204	6.23
300.673	4.38
301.141	5.47
301.61	5.92
302.079	3.2
302.547	3.8
303.015	4.48
303.484	4.37
303.952	3.65
304.421	2.81
304.889	3.53
305.357	5.74
305.825	4.26
306.294	3.58
306.762	4.66
307.23	5.2
307.698	4.98
308.166	4.94
308.634	3.81
309.103	5.63
309.571	5.1
310.039	5.57
310.507	5.32
310.975	5.5
311.442	3.78
311.91	4.66
312.378	4.85
312.846	4.22
313.314	5.91
313.782	5.43
314.249	3.64
314.717	5.63
315.185	4.51
315.652	5.3
316.12	4.3
316.588	4.62
317.055	5.36
317.523	4.42
317.99	5.66
318.458	5.55
318.925	4.64
319.393	4.49
319.86	5.32
320.328	5.19
320.795	5.97
321.262	5.8
321.73	5.16
322.197	4.41
322.664	5.96
323.131	4.48
323.598	5.42
324.066	5.63
324.533	5.05
325	5.19
325.467	5.4
325.934	4.91
326.401	4.05
326.868	4.54
327.335	5.64
327.802	4.44
328.269	4.93
328.735	5.91
329.202	5.25
329.669	4.64
330.136	5.16
330.603	5.14
331.069	4.78
331.536	4.22
332.003	4.17
332.469	7.22
332.936	4.87
333.402	3.94
333.869	4.89
334.336	5.16
334.802	4.51
335.268	4.36
335.735	4.57
336.201	4.71
336.668	5.49
337.134	4.63
337.6	5.71
338.067	4.99
338.533	3.45
338.999	6.03
339.465	7.04
339.931	4.5
340.398	5.52
340.864	5.26
341.33	4.14
341.796	5.06
342.262	5.91
342.728	6.46
343.194	5.82
343.66	4.3
344.126	4.61
344.592	4.63
345.057	6.8
345.523	3.79
345.989	5.76
346.455	5.3
346.921	6.32
347.386	5.07
347.852	7.08
348.318	4.8
348.783	5.24
349.249	4.9
349.714	5.27
350.18	5.11
350.645	5.48
351.111	5.53
351.576	5.05
352.042	6.52
352.507	4.26
352.973	5.64
353.438	5.38
353.903	5.73
354.369	5.42
354.834	5.25
355.299	5.94
355.764	6.13
356.229	5.2
356.695	4.51
357.16	4.46
357.625	4.86
358.09	5.63
358.555	6.14
359.02	5.6
359.485	5.46
359.95	6.61
360.415	4.6
360.879	5.27
361.344	4.76
361.809	7.15
362.274	4.13
362.739	5.14
363.203	6.06
363.668	6.08
364.133	6.31
364.597	4.91
365.062	6.01
365.527	5.17
365.991	6.56
366.456	6.21
366.92	6.4
367.385	4.45
367.849	7.33
368.314	7.19
368.778	5.6
369.242	7.12
369.707	5.53
370.171	6.56
370.635	5.83
371.1	6.53
371.564	6.31
372.028	6.53
372.492	4.99
372.956	4.68
373.42	5.35
373.884	4.79
374.348	6.18
374.812	5.82
375.276	5.08
375.74	5.66
376.204	6.08
376.668	4.88
377.132	7.09
377.596	5.42
378.06	5.63
378.524	4.25
378.987	5.96
379.451	5.31
379.915	4.28
380.378	6.74
380.842	3.83
381.306	6.44
381.769	6.04
382.233	6.66
382.696	4.51
383.16	6.72
383.623	5.07
384.087	4.85
384.55	6.72
385.014	5.27
385.477	5.49
385.94	7.74
386.404	5.65
386.867	5.56
387.33	6.03
387.793	6.66
388.256	5.18
388.72	5.78
389.183	5.58
389.646	6.29
390.109	6.11
390.572	6.14
391.035	6.49
391.498	5.01
391.961	5.77
392.424	5.45
392.887	4.82
393.35	4.2
393.812	4.72
394.275	5.53
394.738	5.21
395.201	4.7
395.664	5.55
396.126	5.92
396.589	6.18
397.052	4.53
397.514	6.35
397.977	5.35
398.439	5.2
398.902	4.69
399.364	6.18
399.827	5.05
400.289	5.98
400.752	5.63
401.214	6.28
401.676	5.2
402.139	3.76
402.601	4.73
403.063	6.22
403.525	5.31
403.988	6.75
404.45	5.81
404.912	4.98
405.374	6.29
405.836	4.64
406.298	5.85
406.76	5.39
407.222	6.64
407.684	4.82
408.146	5.4
408.608	5.49
409.07	6.48
409.532	5.05
409.994	4.91
410.456	5.8
410.917	5.52
411.379	5.91
411.841	5.19
412.303	4.17
412.764	5.14
413.226	4.21
413.687	4.67
414.149	5.52
414.611	4.84
415.072	5.03
415.534	6.27
415.995	4.16
416.457	4.67
416.918	5.85
417.379	4.32
417.841	5.2
418.302	5.85
418.763	5.54
419.225	7.02
419.686	4.19
420.147	5.07
420.608	5.45
421.069	5.84
421.53	5.29
421.991	5.11
422.453	5.85
422.914	6.62
423.375	4.46
423.836	5.99
424.297	6.69
424.757	4.6
425.218	6.45
425.679	5.54
426.14	5.97
426.601	5.81
427.062	7.11
427.522	7.89
427.983	5.58
428.444	7.84
428.904	7.69
429.365	6.53
429.826	6.9
430.286	7.2
430.747	7.15
431.207	8.48
431.668	8.88
432.128	7.53
432.589	10.3
433.049	7.97
433.509	5.68
433.97	5.19
434.43	8.31
434.89	7.36
435.351	8.63
435.811	6.6
436.271	7.37
436.731	8.35
437.191	7.07
437.651	6.99
438.112	9.42
438.572	5.77
439.032	8
439.492	8.18
439.952	7.21
440.412	6.73
440.871	10.55
441.331	6.05
441.791	8.46
442.251	7.05
442.711	6.62
443.171	6.88
443.63	7.37
444.09	8.93
444.55	8.18
445.009	9.64
445.469	7.11
445.929	7.01
446.388	6.96
446.848	7.76
447.307	6.98
447.767	7.96
448.226	7.71
448.686	7.97
449.145	6.66
449.604	6.8
450.064	7.18
450.523	7.64
450.982	8.84
451.442	8.28
451.901	9.57
452.36	8.49
452.819	5.71
453.278	8.55
453.737	8.7
454.197	7.88
454.656	8.64
455.115	10.84
455.574	8.95
456.033	8.91
456.492	8.47
456.95	8.12
457.409	9.76
457.868	7.89
458.327	6.8
458.786	9.17
459.245	7.94
459.703	5.94
460.162	7.79
460.621	8.67
461.079	8.58
461.538	8
461.997	9.59
462.455	8.01
462.914	7.91
463.372	10.71
463.831	6.12
464.289	9.79
464.748	8.05
465.206	8.82
465.664	9.72
466.123	8.46
466.581	7.53
467.039	9.82
467.497	8.7
467.956	10.57
468.414	10.83
468.872	10.32
469.33	7.54
469.788	7.42
470.246	10.19
470.704	9.61
471.162	7.69
471.62	8.75
472.078	8.93
472.536	9.17
472.994	8.35
473.452	6.67
473.91	10.14
474.368	8.24
474.826	8.12
475.283	11.62
475.741	9.58
476.199	7.98
476.656	6.23
477.114	7.21
477.572	9.12
478.029	9.04
478.487	9.19
478.944	8.48
479.402	10.94
479.859	8.18
480.317	8.58
480.774	9.25
481.232	7.5
481.689	8.97
482.146	9.87
482.604	10.09
483.061	6.03
483.518	10.63
483.975	10.69
484.433	8.42
484.89	10.27
485.347	7.29
485.804	9.33
486.261	8.9
486.718	9.57
487.175	8.17
487.632	8.72
488.089	10.21
488.546	10.25
489.003	8.91
489.46	11.7
489.917	9.06
490.373	8.55
490.83	8.77
491.287	10.1
491.744	9.75
492.2	12.45
492.657	7.34
493.114	6.46
493.57	6.67
494.027	13.11
494.484	9.98
494.94	6.85
495.397	9.38
495.853	9.58
496.31	7.7
496.766	12.79
497.222	12.23
497.679	12.68
498.135	6.82
498.591	9
499.048	11.21
499.504	7.09
499.96	8.56
500.416	7.82
500.872	9.78
501.329	7.83
501.785	8.57
502.241	8.68
502.697	8.06
503.153	9.94
503.609	8.73
504.065	10.65
504.521	8.48
504.977	8.89
505.432	7.69
505.888	11.59
506.344	9.04
506.8	7.82
507.256	8.52
507.711	8.42
508.167	7.81
508.623	9.43
509.078	7.99
509.534	8.31
509.99	8.81
510.445	7.51
510.901	8.45
511.356	9.01
511.812	9.93
512.267	8.33
512.722	9.65
513.178	8.35
513.633	7.22
514.089	10.34
514.544	7.78
514.999	8.49
515.454	8.82
515.91	9.74
516.365	8.67
516.82	7.76
517.275	9.51
517.73	7.21
518.185	7.56
518.64	8.25
519.095	8.02
519.55	7.17
520.005	8.73
520.46	8.92
520.915	9.93
521.37	8.64
521.825	8.51
522.28	8.65
522.734	8.79
523.189	8.49
523.644	8.95
524.099	8.66
524.553	8.8
525.008	9.43
525.462	7.64
525.917	8.94
526.372	8.7
526.826	8.45
527.281	7.8
527.735	8.21
528.19	8.84
528.644	9.48
529.098	7.18
529.553	9.34
530.007	9.92
530.461	10.14
530.916	11.47
531.37	9.51
531.824	8.14
532.278	7.53
532.732	9.8
533.186	9
533.641	8.59
534.095	9.53
534.549	7.98
535.003	7.71
535.457	8.59
535.911	7.86
536.365	8.36
536.818	7.81
537.272	7.97
537.726	10.26
538.18	10.31
538.634	9.5
539.087	7.4
539.541	9.4
539.995	8.64
540.449	8.19
540.902	8.74
541.356	10.97
541.809	10.18
542.263	8.58
542.716	8.33
543.17	8.88
543.623	8.16
544.077	8.14
544.53	8.21
544.984	7.98
545.437	7.96
545.89	10.56
546.344	6.1
546.797	8.48
547.25	8.7
547.703	8.16
548.157	9.15
548.61	7.62
549.063	8.72
549.516	7.36
549.969	9.32
550.422	10.23
550.875	9.22
551.328	9.84
551.781	7.15
552.234	8.74
552.687	9.02
553.14	7.76
553.592	7.79
554.045	9.77
554.498	8.37
554.951	7.65
555.404	9.24
555.856	9.36
556.309	8.96
556.762	8.5
557.214	9.46
557.667	7.31
558.119	8.55
558.572	8.59
559.024	8.54
559.477	7.85
559.929	9.68
560.382	8.49
560.834	9.01
561.286	9.01
561.739	8.32
562.191	8.08
562.643	9.63
563.095	9.15
563.548	8.13
564	8.63
564.452	8.22
564.904	7.68
565.356	9.16
565.808	8.8
566.26	8.22
566.712	8.47
567.164	7.54
567.616	8.67
568.068	8.06
568.52	8.03
568.972	7.4
569.424	7.8
569.876	7.73
570.327	8.6
570.779	7.88
571.231	10.34
571.682	7.72
572.134	7.45
572.586	8.58
573.037	7.92
573.489	8.01
573.941	7.79
574.392	8.42
574.844	8.49
575.295	7.3
575.746	8.15
576.198	8.3
576.649	7.57
577.101	7.06
577.552	7.85
578.003	8.11
578.454	6.44
578.906	8.02
579.357	7.24
579.808	6.95
580.259	7.23
580.71	7.15
581.161	8.11
581.612	7.25
582.064	7.15
582.515	8.91
582.965	7.35
583.416	7.63
583.867	7.67
584.318	7.01
584.769	7.57
585.22	7.03
585.671	8.17
586.122	7.87
586.572	9.35
587.023	8.27
587.474	8.61
587.924	8.35
588.375	7.42
588.826	8.37
589.276	7.88
589.727	7.5
590.177	8.58
590.628	7.71
591.078	8.5
591.529	8.47
591.979	7.75
592.429	8.07
592.88	7.9
593.33	8.85
593.78	8.18
594.231	8.02
594.681	8.85
595.131	6.81
595.581	8.16
596.031	7.69
596.481	7.62
596.932	7.65
597.382	8.11
597.832	8.36
598.282	8.05
598.732	8.33
599.182	7.98
599.632	9.93
600.081	8.78
600.531	8.19
600.981	9.26
601.431	8.53
601.881	7.76
602.33	8.41
602.78	10.1
603.23	8.09
603.679	9.31
604.129	7.65
604.579	6.88
605.028	8.15
605.478	8.84
605.927	7.78
606.377	8.85
606.826	8.25
607.276	8.9
607.725	7.89
608.175	9.05
608.624	9.15
609.073	7.43
609.522	8.59
609.972	8.37
610.421	7.31
610.87	8.68
611.319	6.98
611.768	7.77
612.218	7.68
612.667	7.59
613.116	8.38
613.565	7.43
614.014	7.19
614.463	8.47
614.912	8.36
615.361	8.08
615.81	8.24
616.258	7.03
616.707	8.17
617.156	7.9
617.605	7.87
618.054	8.82
618.502	8.07
618.951	7.33
619.4	7.6
619.848	7.81
620.297	7.64
620.745	8.41
621.194	8.18
621.642	7.62
622.091	7.83
622.539	8.13
622.988	8.2
623.436	7.98
623.885	7.87
624.333	8.15
624.781	8.11
625.23	7.17
625.678	7.69
626.126	8.41
626.574	7.25
627.022	7.98
627.471	7.37
627.919	8.27
628.367	8.77
628.815	7.8
629.263	8.1
629.711	7.33
630.159	8.07
630.607	7.74
631.055	8.42
631.503	7.8
631.95	7.74
632.398	8.44
632.846	8.18
633.294	8.26
633.742	7.69
634.189	8.26
634.637	8.7
635.085	7.48
635.532	8.59
635.98	8.45
636.427	7.74
636.875	7.71
637.323	8.82
637.77	7.94
638.217	8
638.665	7.84
639.112	7.27
639.56	7.73
640.007	7.99
640.454	7.89
640.902	8.12
641.349	7.93
641.796	7.71
642.243	8.82
642.69	8.1
643.138	8.4
643.585	8.33
644.032	8.27
644.479	8.5
644.926	8.58
645.373	8.12
645.82	7.77
646.267	8.37
646.714	8.24
647.161	8.24
647.607	7.94
648.054	7.31
648.501	8.12
648.948	8.3
649.395	8.27
649.841	8.7
650.288	7.92
650.735	8.24
651.181	8.08
651.628	8.18
652.075	8.19
652.521	7.67
652.968	7.8
653.414	7.86
653.861	8.17
654.307	9
654.753	8.15
655.2	8.23
655.646	7.4
656.092	8.54
656.539	8.75
656.985	7.88
657.431	7.78
657.877	8.05
658.324	8.16
658.77	8.61
659.216	8.34
659.662	7.51
660.108	8.84
660.554	8.46
661	8.46
661.446	8.59
661.892	8.37
662.338	7.77
662.784	8.45
663.23	7.93
663.675	8.14
664.121	7.83
664.567	8.84
665.013	7.68
665.458	7.94
665.904	8.33
666.35	7.64
666.795	8.1
667.241	8.44
667.687	8.23
668.132	8.45
668.578	8.08
669.023	8.95
669.469	8.83
669.914	9.39
670.359	8.47
670.805	7.6
671.25	8.29
671.695	8.25
672.141	8.66
672.586	7.93
673.031	9.27
673.476	7.65
673.922	8.52
674.367	8.12
674.812	8.55
675.257	8.31
675.702	8.02
676.147	8.1
676.592	8.77
677.037	7.66
677.482	7.78
677.927	8.45
678.372	8.5
678.817	8.28
679.261	9.03
679.706	8.92
680.151	8.52
680.596	7.33
681.04	8.3
681.485	8.14
681.93	7.81
682.374	8.69
682.819	8.49
683.264	8.33
683.708	7.78
684.153	7.86
684.597	9.02
685.042	8.76
685.486	8.36
685.93	8.52
686.375	8.95
686.819	7.85
687.263	8.6
687.708	8.61
688.152	8.17
688.596	8.64
689.04	8.14
689.485	8.53
689.929	8.76
690.373	8.52
690.817	7.62
691.261	7.98
691.705	8.27
692.149	8.71
692.593	8.32
693.037	8.31
693.481	8.24
693.925	7.88
694.369	8.48
694.812	7.7
695.256	8.58
695.7	8.06
696.144	7.89
696.587	8.34
697.031	8.63
697.475	8.67
697.918	8.87
698.362	8.39
698.806	8.52
699.249	8.36
699.693	8.95
700.136	8.52
700.58	8.37
701.023	8.82
701.466	8.57
701.91	8.91
702.353	8.74
702.796	9.24
703.24	8.75
703.683	8.84
704.126	8.69
704.569	7.99
705.013	8.53
705.456	8.45
705.899	8.63
706.342	7.98
706.785	8.39
707.228	8.59
707.671	8.53
708.114	9.07
708.557	8.35
709	8.94
709.443	8.65
709.886	9.25
710.328	8.73
710.771	8.17
711.214	8.39
711.657	8.23
712.099	8.62
712.542	8.29
712.985	8.83
713.427	8.64
713.87	9.04
714.313	8.63
714.755	8.67
715.198	8.42
715.64	8.59
716.083	8.79
716.525	8.62
716.967	8.19
717.41	8.76
717.852	8.91
718.295	9.23
718.737	8.29
719.179	9.29
719.621	8.72
720.063	8.18
720.506	8.55
720.948	8.54
721.39	9.19
721.832	8.81
722.274	9.15
722.716	9.38
723.158	8.96
723.6	9
724.042	8.72
724.484	8.92
724.926	9.04
725.368	8.08
725.81	8.81
726.251	9.14
726.693	9.07
727.135	9.19
727.577	8.98
728.018	9.21
728.46	8.56
728.902	8.91
729.343	8.4
729.785	8.37
730.226	9.32
730.668	9.19
731.109	9.5
731.551	8.64
731.992	8.84
732.434	9.05
732.875	9.41
733.316	9.45
733.758	9.24
734.199	9.13
734.64	9.31
735.081	8.92
735.523	9.31
735.964	9.32
736.405	9.21
736.846	9.19
737.287	8.73
737.728	8.89
738.169	9.05
738.61	9.03
739.051	9.52
739.492	10.01
739.933	8.51
740.374	9.2
740.815	9.44
741.256	9.57
741.696	9.63
742.137	9.74
742.578	9.89
743.019	9.09
743.459	9.54
743.9	9.23
744.341	8.99
744.781	9.3
745.222	8.97
745.662	9.77
746.103	9.05
746.543	8.89
746.984	9.53
747.424	9.57
747.865	9.3
748.305	9.69
748.745	9.35
749.186	9.5
749.626	10.01
750.066	9.39
750.506	9.88
750.947	9.09
751.387	9.53
751.827	9.82
752.267	9.36
752.707	9.61
753.147	9.37
753.587	9.77
754.027	9.37
754.467	9.76
754.907	9.38
755.347	9.59
755.787	9.54
756.227	9.84
756.667	10.12
757.107	9.58
757.546	9.39
757.986	8.92
758.426	9.26
758.865	9.36
759.305	9.36
759.745	9.56
760.184	9.34
760.624	9.74
761.063	9.85
761.503	9.87
761.943	9.09
762.382	9.85
762.821	9.71
763.261	9.62
763.7	10.16
764.14	9.61
764.579	9.52
765.018	9.58
765.457	9.91
765.897	9.52
766.336	9.89
766.775	9.28
767.214	9.46
767.653	9.49
768.092	9.49
768.531	9.92
768.97	9.75
769.409	9.64
769.848	10.16
770.287	9.96
770.726	10.36
771.165	9.07
771.604	10.33
772.043	9.45
772.482	9.64
772.92	10.08
773.359	9.68
773.798	9.35
774.237	9.82
774.675	10.2
775.114	10.19
775.553	9.75
775.991	10.02
776.43	9.88
776.868	9.77
777.307	10.13
777.745	10.3
778.184	10.16
778.622	9.37
779.06	9.46
779.499	9.68
779.937	10.34
780.375	9.88
780.814	10.05
781.252	10.03
781.69	9.62
782.128	9.92
782.566	9.7
783.004	9.85
783.443	9.9
783.881	9.99
784.319	10.13
784.757	9.94
785.195	9.58
785.633	9.87
786.071	9.91
786.508	10.23
786.946	10.35
787.384	9.95
787.822	10.01
788.26	10.47
788.697	10.2
789.135	10.04
789.573	9.75
790.011	10.2
790.448	9.72
790.886	9.77
791.323	10.26
791.761	10.13
792.198	10.14
792.636	10.28
793.073	9.93
793.511	10.13
793.948	10.37
794.386	10.48
794.823	10.2
795.26	10.98
795.698	9.78
796.135	10.38
796.572	10.5
797.009	10.53
797.446	10.06
797.884	10.05
798.321	10.14
798.758	10.54
799.195	9.8
799.632	10.43
800.069	9.85
800.506	10.39
800.943	10.38
801.38	10.28
801.817	10.04
802.254	10.25
802.69	10.43
803.127	10.55
803.564	10.54
804.001	10.71
804.438	10.12
804.874	10.39
805.311	10.5
805.748	10.24
806.184	10.46
806.621	10.08
807.057	10.52
807.494	10.24
807.93	10.71
808.367	10.96
808.803	10.65
809.24	10.5
809.676	10.49
810.112	10.39
810.549	10.34
810.985	10.81
811.421	10.64
811.857	10.7
812.294	10.39
812.73	10.35
813.166	10.29
813.602	10.82
814.038	10.19
814.474	10.4
814.91	10.68
815.346	11.02
815.782	10.8
816.218	11.14
816.654	10.31
817.09	11.06
817.526	10.73
817.962	10.77
818.398	10.5
818.833	10.4
819.269	10.44
819.705	10.54
820.141	10.68
820.576	10.71
821.012	10.51
821.447	10.84
821.883	10.99
822.319	10.69
822.754	11.14
823.19	11.01
823.625	10.47
824.061	10.85
824.496	10.81
824.931	10.83
825.367	11.09
825.802	11
826.237	10.91
826.673	10.91
827.108	10.81
827.543	11.09
827.978	10.79
828.413	10.97
828.849	10.55
829.284	11.15
829.719	10.82
830.154	10.76
830.589	10.84
831.024	11.26
831.459	10.95
831.894	11.09
832.329	11.61
832.763	10.99
833.198	11.47
833.633	11.19
834.068	11.49
834.503	11.8
834.937	10.72
835.372	11.38
835.807	11.05
836.241	11.28
836.676	11.07
837.111	11.29
837.545	11.26
837.98	11.07
838.414	11.04
838.849	11.29
839.283	11.17
839.717	11.55
840.152	11.17
840.586	11.04
841.021	11.32
841.455	11.2
841.889	11.11
842.323	11.46
842.758	11.76
843.192	11.19
843.626	11.56
844.06	11.39
844.494	11.6
844.928	11.2
845.362	11.51
845.796	11.61
846.23	11.39
846.664	11.41
847.098	11.57
847.532	11.41
847.966	11.29
848.4	11.33
848.834	11.09
849.267	11.42
849.701	11.78
850.135	11.8
850.569	11.58
851.002	11.32
851.436	11.5
851.87	11.45
852.303	12.06
852.737	11.49
853.17	11.8
853.604	11.7
854.037	11.61
854.471	12.04
854.904	11.84
855.337	11.63
855.771	11.78
856.204	11.96
856.637	11.65
857.071	12.05
857.504	11.7
857.937	11.33
858.37	11.99
858.804	11.63
859.237	11.98
859.67	12.26
860.103	11.74
860.536	11.96
860.969	11.83
861.402	11.8
861.835	11.83
862.268	11.63
862.701	12.04
863.134	11.71
863.566	12.45
863.999	11.63
864.432	12.07
864.865	12.03
865.298	12.09
865.73	11.94
866.163	12.07
866.596	12.29
867.028	12.02
867.461	12.26
867.893	12.29
868.326	12.01
868.758	12.5
869.191	12.11
869.623	12.21
870.056	12.18
870.488	12.28
870.92	12.14
871.353	12.28
871.785	12.35
872.217	12.38
872.65	12.23
873.082	12.3
873.514	12.1
873.946	12.14
874.378	12.58
874.81	12.15
875.243	12.52
875.675	12.12
876.107	12.19
876.539	12.48
876.971	12.52
877.403	12.55
877.834	12.04
878.266	12.52
878.698	12.56
879.13	12.75
879.562	12.59
879.994	12.7
880.425	12.42
880.857	12.26
881.289	12.79
881.72	12.59
882.152	12.51
882.584	12.54
883.015	12.73
883.447	12.42
883.878	12.48
884.31	12.42
884.741	12.61
885.173	12.63
885.604	13.02
886.035	12.79
886.467	12.63
886.898	12.68
887.329	12.9
887.76	12.61
888.192	12.69
888.623	12.55
889.054	12.62
889.485	13.01
889.916	12.53
890.347	12.9
890.778	12.8
891.209	12.88
891.64	13
892.071	12.76
892.502	13.23
892.933	12.53
893.364	13.06
893.795	12.56
894.226	12.76
894.657	13.1
895.087	12.95
895.518	12.74
895.949	12.98
896.38	12.98
896.81	13.58
897.241	12.84
897.671	12.9
898.102	13.1
898.533	13.07
898.963	13.37
899.394	13.03
899.824	13.33
900.254	12.75
900.685	13.06
901.115	13.19
901.546	13.51
901.976	13.54
902.406	13.5
902.836	13.45
903.267	13.31
903.697	13.36
904.127	13.43
904.557	13.46
904.987	13.14
905.417	13.02
905.847	13.59
906.277	13.17
906.707	13.36
907.137	13.69
907.567	13.24
907.997	13.34
908.427	13.28
908.857	13.56
909.287	13.33
909.717	13.65
910.146	13.53
910.576	13.5
911.006	13.6
911.436	13.59
911.865	13.59
912.295	13.72
912.724	13.72
913.154	13.79
913.584	13.42
914.013	13.91
914.443	13.79
914.872	13.87
915.302	13.66
915.731	13.73
916.16	13.72
916.59	13.96
917.019	13.42
917.448	13.84
917.878	14.3
918.307	14.22
918.736	14.18
919.165	13.83
919.594	14.07
920.023	13.59
920.452	13.61
920.882	13.96
921.311	13.99
921.74	13.94
922.169	14.11
922.597	14.35
923.026	14.32
923.455	13.92
923.884	14.02
924.313	14.28
924.742	14.24
925.171	13.79
925.599	14.49
926.028	14.22
926.457	14
926.885	14.03
927.314	14.32
927.743	14.2
928.171	14.03
928.6	14.45
929.028	14.46
929.457	14.45
929.885	14.34
930.314	14.23
930.742	14.32
931.17	14.5
931.599	14.29
932.027	14.18
932.455	14.59
932.884	14.6
933.312	14.33
933.74	14.49
934.168	14.34
934.596	14.34
935.025	14.45
935.453	14.49
935.881	14.59
936.309	14.81
936.737	14.28
937.165	14.65
937.593	13.96
938.021	14.72
938.449	14.82
938.876	14.16
939.304	15
939.732	14.77
940.16	14.8
940.588	14.49
941.015	14.82
941.443	14.92
941.871	15.37
942.298	14.91
942.726	15.03
943.154	14.93
943.581	15.11
944.009	14.63
944.436	15.08
944.864	14.99
945.291	14.93
945.718	14.66
946.146	15.13
946.573	14.94
947.001	15.5
947.428	15.25
947.855	15.36
948.282	15.22
948.71	15.11
949.137	14.93
949.564	14.76
949.991	15.18
950.418	15.57
950.845	15.42
951.272	15.41
951.699	15.22
952.126	15.08
952.553	15.34
952.98	15.42
953.407	14.98
953.834	15.27
954.261	15.1
954.688	15.45
955.114	15.53
955.541	15.58
955.968	15.05
956.395	15.11
956.821	15.34
957.248	15.45
957.674	15.3
958.101	15.29
958.528	15.64
958.954	15.66
959.381	15.56
959.807	15.37
960.234	15.48
960.66	15.32
961.086	15.73
961.513	15.49
961.939	15.56
962.365	15.71
962.792	15.81
963.218	15.82
963.644	15.31
964.07	15.74
964.496	15.42
964.923	16.04
965.349	15.78
965.775	15.89
966.201	15.89
966.627	15.82
967.053	16.04
967.479	15.85
967.905	15.85
968.331	16.08
968.756	15.84
969.182	15.75
969.608	15.35
970.034	16
970.46	15.91
970.885	15.87
971.311	15.87
971.737	15.64
972.162	16.06
972.588	16.17
973.014	15.83
973.439	16.27
973.865	16.03
974.29	15.98
974.716	16.07
975.141	16.26
975.567	16.02
975.992	15.77
976.417	16.15
976.843	16.06
977.268	16.35
977.693	16.07
978.119	16.17
978.544	16.2
978.969	16.52
979.394	16.29
979.819	16.3
980.244	16.22
980.669	16.54
981.095	16.64
981.52	16.2
981.945	16.47
982.369	16.71
982.794	16.32
983.219	16.49
983.644	16.62
984.069	16.73
984.494	16.25
984.919	16.56
985.343	16.92
985.768	16.46
986.193	16.68
986.618	16.49
987.042	16.38
987.467	16.76
987.891	16.63
988.316	16.85
988.741	16.87
989.165	16.74
989.59	16.66
990.014	17.02
990.438	16.68
990.863	16.51
991.287	17.1
991.712	16.92
992.136	16.87
992.56	16.81
992.984	16.65
993.409	16.96
993.833	17.05
994.257	17
994.681	17.39
995.105	17.33
995.529	17.24
995.953	17.05
996.377	17.35
996.801	17.37
997.225	17.08
997.649	17.38
998.073	17.12
998.497	17.39
998.921	17.52
999.345	17.54
999.769	17.52
1000.192	16.86
1000.616	17.42
1001.04	17.55
1001.464	17.41
1001.887	17.39
1002.311	17.43
1002.734	17.23
1003.158	17.63
1003.582	17.48
1004.005	17.31
1004.429	17.73
1004.852	17.42
1005.275	17.09
1005.699	17.04
1006.122	17.63
1006.546	17.88
1006.969	17.88
1007.392	17.79
1007.815	17.72
1008.239	17.86
1008.662	17.59
1009.085	17.74
1009.508	17.79
1009.931	17.84
1010.354	17.88
1010.778	17.93
1011.201	17.92
1011.624	17.97
1012.047	17.91
1012.469	18.3
1012.892	17.8
1013.315	17.91
1013.738	18.4
1014.161	18.17
1014.584	17.9
1015.007	18.19
1015.429	18.25
1015.852	18.04
1016.275	18.38
1016.697	18.36
1017.12	18.43
1017.543	18.6
1017.965	18.42
1018.388	17.69
1018.81	18.24
1019.233	18.28
1019.655	18.08
1020.078	18.5
1020.5	17.81
1020.922	18.43
1021.345	18.24
1021.767	18.52
1022.189	18.34
1022.612	18.48
1023.034	18.12
1023.456	18.22
1023.878	18.44
1024.301	18.61
1024.723	18.79
1025.145	19.05
1025.567	18.53
1025.989	18.93
1026.411	18.35
1026.833	18.39
1027.255	18.85
1027.677	18.38
1028.099	18.86
1028.52	18.38
1028.942	19.18
1029.364	19.02
1029.786	19.13
1030.208	19.2
1030.629	18.87
1031.051	18.99
1031.473	18.79
1031.894	19.22
1032.316	18.74
1032.738	18.83
1033.159	19.63
1033.581	19.15
1034.002	19.3
1034.424	19.21
1034.845	19.42
1035.267	19.3
1035.688	18.69
1036.109	19.26
1036.531	19.8
1036.952	18.98
1037.373	19.35
1037.794	19.89
1038.216	19.42
1038.637	19.35
1039.058	19.36
1039.479	19.21
1039.9	19.66
1040.321	19.64
1040.742	19.2
1041.163	19.41
1041.584	19.57
1042.005	19.89
1042.426	19.32
1042.847	19.86
1043.268	19.7
1043.689	20.09
1044.11	20.04
1044.53	19.2
1044.951	19.89
1045.372	20.38
1045.793	19.68
1046.213	19.92
1046.634	20.02
1047.055	20.03
1047.475	20.14
1047.896	19.84
1048.316	20.59
1048.737	20.4
1049.157	20.87
1049.578	20.44
1049.998	20.09
1050.419	19.63
1050.839	20.74
1051.259	20.4
1051.68	20.92
1052.1	20.4
1052.52	20.6
1052.94	20.73
1053.361	21.2
1053.781	20.86
1054.201	19.97
1054.621	20.02
1055.041	19.98
1055.461	20.56
1055.881	20.29
1056.301	19.96
1056.721	20.89
1057.141	20.56
1057.561	20.71
1057.981	20.2
1058.401	20.45
1058.82	20.65
1059.24	20.54
1059.66	20.7
1060.08	20.78
1060.499	21.22
1060.919	20.42
1061.339	20.67
1061.758	21.02
1062.178	21.38
1062.598	20.53
1063.017	20.87
1063.437	21.63
1063.856	21.06
1064.276	20.89
1064.695	20.99
1065.114	20.65
1065.534	20.94
1065.953	21.71
1066.372	21.11
1066.792	22.24
1067.211	20.58
1067.63	21.25
1068.049	21.47
1068.469	21.32
1068.888	21.58
1069.307	21.46
1069.726	21.41
1070.145	21.89
1070.564	21.64
1070.983	20.76
1071.402	23.03
1071.821	21.54
1072.24	21.12
1072.659	21.35
1073.078	22.04
1073.496	22.1
1073.915	22.72
1074.334	21.02
1074.753	20.37
1075.171	22.27
1075.59	21.85
1076.009	21.53
1076.427	22.46
1076.846	22.07
1077.265	21.58
1077.683	21.74
1078.102	23.16
1078.52	21.2
1078.939	22.06
1079.357	22.53
1079.776	22.96
1080.194	23.64
1080.612	22.7
1081.031	22.25
1081.449	22.2
1081.867	23.21
1082.285	22.83
1082.704	21.47
1083.122	22.68
1083.54	22.76
1083.958	23.12
1084.376	21.73
1084.794	22.35
1085.212	23.07
1085.63	22.78
1086.048	21.83
1086.466	23.53
1086.884	20.61
1087.302	22.38
1087.72	23.24
1088.138	21.03
1088.555	22.64
1088.973	23.83
1089.391	23.13
1089.809	23.93
1090.226	22.87
1090.644	22.66
1091.062	22.54
1091.479	23.3
1091.897	23.08
1092.314	22.13
1092.732	23.64
1093.15	22.67
1093.567	23.9
1093.984	22.23
1094.402	23.75
1094.819	22.96
1095.237	24.13
1095.654	23.21
1096.071	23.44
1096.488	24.92
1096.906	23.67
1097.323	24.89
1097.74	25.75
1098.157	24.1
1098.574	24.76
1098.991	22.95
1099.409	25.18
1099.826	25.52
1100.243	24.63
1100.66	25.17
1101.077	23.25
1101.494	26.79
1101.91	24.19
1102.327	23.23
1102.744	26.27
1103.161	24.63
1103.578	24.57
1103.994	26.45
1104.411	24.35
1104.828	23.31
1105.245	25.7
1105.661	23.74
1106.078	25.22
1106.494	24.51
1106.911	26.08
1107.328	26.37
1107.744	26.88
1108.161	23.52
1108.577	27.3
1108.993	27.01
1109.41	23.19
1109.826	25.98
1110.242	25.54
1110.659	25.85
1111.075	28.4
1111.491	24.02
1111.908	27.8
1112.324	26.6
1112.74	24.47
1113.156	26
1113.572	24.57
1113.988	27.85
1114.404	28.41
1114.82	26.83
1115.236	28.5
1115.652	31.01
1116.068	24.17
1116.484	28.93
1116.9	22.34
1117.316	28.28
1117.732	48
1118.147	0
1118.563	171.43
1118.979	163.64
