Data from JCR0035_WhiteVentral_Reflection_00002.txt Node
Date: Fri Jul 31 15:50:12 ACST 2020
User: Stacey Dix
Spectrometer: MAYP113282
Scans to average: 1
Trigger mode: 0
Integration Time (sec): 1.000000E-1
Electric dark correction enabled: true
Boxcar width: 0
XAxis mode: Wavelengths
Number of Pixels in Spectrum: 2068
>>>>>Begin Spectral Data<<<<<
198.791	650
199.266	157.14
199.74	140
200.215	-550
200.69	27.01
201.164	20.36
201.639	4.61
202.114	43.89
202.588	34.27
203.063	30.62
203.537	34.48
204.012	14.83
204.486	15.81
204.961	-2.33
205.435	2.86
205.909	42.91
206.384	-30.32
206.858	21.76
207.332	37.9
207.807	25.48
208.281	8.72
208.755	31.44
209.229	28.11
209.703	38.91
210.177	11.34
210.651	31.95
211.126	2.41
211.6	43.73
212.074	11.02
212.548	4.89
213.021	9.57
213.495	44.93
213.969	23.68
214.443	9.09
214.917	25.15
215.391	26.35
215.864	27.99
216.338	25.11
216.812	16.57
217.286	30.99
217.759	30.86
218.233	22.66
218.706	21.29
219.18	19.4
219.654	21.88
220.127	17.74
220.6	27.36
221.074	19.68
221.547	16.86
222.021	26.77
222.494	10.15
222.967	18.71
223.441	3.22
223.914	15.61
224.387	20.76
224.86	19.18
225.334	12.65
225.807	18.16
226.28	4.3
226.753	15.9
227.226	10.2
227.699	13.96
228.172	11.21
228.645	13.6
229.118	15.54
229.591	11.19
230.064	12.17
230.537	9.66
231.01	10.65
231.482	11.45
231.955	10.18
232.428	9.69
232.901	11.18
233.373	9.46
233.846	9.81
234.319	9.8
234.791	9.01
235.264	8.08
235.736	9.72
236.209	8.46
236.681	9.9
237.154	8.61
237.626	11.25
238.099	9.69
238.571	8.95
239.044	12.53
239.516	9.4
239.988	10.1
240.46	9.47
240.933	7.9
241.405	10.39
241.877	8.79
242.349	10.3
242.821	8.52
243.293	10.54
243.765	9.47
244.237	8.66
244.71	9.91
245.181	9.42
245.653	11.25
246.125	9.65
246.597	9
247.069	11.04
247.541	8.45
248.013	10.64
248.485	10.11
248.956	9.77
249.428	10.18
249.9	8.01
250.371	8.91
250.843	9.75
251.315	8.18
251.786	8.11
252.258	9.03
252.729	8.39
253.201	9.17
253.672	8.3
254.144	9.01
254.615	8.07
255.086	8.36
255.558	8.33
256.029	8.16
256.5	9.01
256.972	8.81
257.443	8.07
257.914	7.11
258.385	8.73
258.856	7.77
259.327	8.61
259.799	7.44
260.27	8.67
260.741	8.31
261.212	8.43
261.683	8.57
262.154	7.86
262.624	8.6
263.095	8.13
263.566	7.81
264.037	8.16
264.508	8.35
264.979	8.89
265.449	8.34
265.92	7.67
266.391	7.53
266.861	8.41
267.332	8.94
267.803	8.07
268.273	8.8
268.744	8.23
269.214	8.8
269.685	8.14
270.155	7.49
270.626	8.29
271.096	7.73
271.566	8.38
272.037	8.01
272.507	7.92
272.977	8.32
273.448	8.05
273.918	7.43
274.388	8.32
274.858	7.34
275.328	7.37
275.798	8.69
276.268	8.05
276.738	7.47
277.208	7.56
277.678	8.88
278.148	7.89
278.618	10.15
279.088	8.03
279.558	7.95
280.028	7.41
280.498	6.36
280.968	7.98
281.437	7.57
281.907	8.3
282.377	6.57
282.847	8.12
283.316	7.93
283.786	8.27
284.255	7.49
284.725	7.54
285.194	7.01
285.664	7.34
286.133	7.54
286.603	7.92
287.072	7.41
287.542	7.59
288.011	7.17
288.48	7.37
288.95	7.96
289.419	7.54
289.888	8.07
290.357	7.28
290.827	8.07
291.296	6.94
291.765	7.47
292.234	7.62
292.703	7.41
293.172	7.29
293.641	7.43
294.11	8.43
294.579	7.59
295.048	7.68
295.517	7.34
295.986	7.82
296.455	7.68
296.923	7.54
297.392	7.68
297.861	7.44
298.33	8.1
298.798	8.57
299.267	7.83
299.736	7.96
300.204	8.06
300.673	7.55
301.141	6.7
301.61	8.3
302.079	8.04
302.547	6.91
303.015	6.99
303.484	7.4
303.952	8.15
304.421	6.99
304.889	7.26
305.357	8
305.825	7
306.294	7.73
306.762	7.88
307.23	7.23
307.698	6.56
308.166	7.61
308.634	6.84
309.103	7.54
309.571	7.88
310.039	7.53
310.507	8.25
310.975	6.96
311.442	7.26
311.91	7.22
312.378	7.84
312.846	6.43
313.314	7.53
313.782	8.26
314.249	8.24
314.717	7.71
315.185	8.45
315.652	9.39
316.12	7.62
316.588	7.95
317.055	8.64
317.523	7.9
317.99	7.02
318.458	8.31
318.925	8.74
319.393	7.98
319.86	8.19
320.328	8.76
320.795	9.69
321.262	8.98
321.73	8.65
322.197	9.43
322.664	9.72
323.131	10.73
323.598	10.42
324.066	13.1
324.533	11.23
325	13.23
325.467	13.84
325.934	14.92
326.401	14.02
326.868	16.01
327.335	17.19
327.802	17.47
328.269	17.78
328.735	17.81
329.202	19.92
329.669	20.24
330.136	21.85
330.603	21.92
331.069	22.78
331.536	22.88
332.003	25.35
332.469	24.09
332.936	25.07
333.402	25.84
333.869	24.28
334.336	27.93
334.802	27.1
335.268	24.03
335.735	27.06
336.201	25.83
336.668	25.61
337.134	28.27
337.6	26.33
338.067	27.34
338.533	26.61
338.999	27.02
339.465	26.76
339.931	25.83
340.398	26.92
340.864	26.95
341.33	26.38
341.796	25.93
342.262	24.68
342.728	27.12
343.194	27.84
343.66	26.22
344.126	26.79
344.592	26.62
345.057	26.38
345.523	28.25
345.989	27.65
346.455	25.34
346.921	26.06
347.386	26.66
347.852	24.94
348.318	26.34
348.783	24.8
349.249	25.79
349.714	25.96
350.18	26.24
350.645	26.82
351.111	26.29
351.576	26.69
352.042	27.21
352.507	26.96
352.973	27.27
353.438	27.1
353.903	27.96
354.369	27.38
354.834	27.55
355.299	28.22
355.764	29.03
356.229	26.92
356.695	27.2
357.16	26.11
357.625	26.87
358.09	29.96
358.555	28.54
359.02	28.14
359.485	26.3
359.95	29.32
360.415	28.62
360.879	27.58
361.344	27.69
361.809	28.08
362.274	29.33
362.739	27.29
363.203	27.61
363.668	26.44
364.133	27.14
364.597	27.88
365.062	30.01
365.527	27.9
365.991	27.83
366.456	28.58
366.92	28.67
367.385	30.15
367.849	28.68
368.314	28.6
368.778	28.94
369.242	29.33
369.707	30.99
370.171	28.98
370.635	29.35
371.1	28.71
371.564	30.93
372.028	29.23
372.492	31.91
372.956	30.35
373.42	31.35
373.884	33.17
374.348	30.5
374.812	29.76
375.276	31.97
375.74	32.22
376.204	33.6
376.668	31.03
377.132	32.63
377.596	32.82
378.06	31.68
378.524	32.21
378.987	31.02
379.451	30.56
379.915	32.22
380.378	31.47
380.842	32.89
381.306	31.85
381.769	33.22
382.233	31.85
382.696	33.1
383.16	32.45
383.623	31.68
384.087	32.77
384.55	32.89
385.014	32.47
385.477	33.65
385.94	36.33
386.404	35.2
386.867	34.06
387.33	33.37
387.793	33.99
388.256	33.24
388.72	32.71
389.183	35
389.646	33.01
390.109	36.13
390.572	34.13
391.035	35.04
391.498	35.3
391.961	34.03
392.424	33.19
392.887	34.22
393.35	36.67
393.812	33.25
394.275	36.1
394.738	35
395.201	35.61
395.664	35.82
396.126	36.9
396.589	34.54
397.052	34.88
397.514	35.58
397.977	36.51
398.439	35.47
398.902	34.88
399.364	36.71
399.827	36.96
400.289	35.44
400.752	36.62
401.214	36.48
401.676	35.97
402.139	34.39
402.601	36.38
403.063	34.73
403.525	35.41
403.988	35.23
404.45	34.41
404.912	35.12
405.374	35.84
405.836	36.54
406.298	36.61
406.76	35.89
407.222	35.69
407.684	37.02
408.146	34.37
408.608	36.34
409.07	37.15
409.532	35.15
409.994	36.88
410.456	35.85
410.917	37.4
411.379	35.05
411.841	36.14
412.303	35.66
412.764	36.76
413.226	37.2
413.687	36.87
414.149	35.45
414.611	34.6
415.072	37.05
415.534	37.15
415.995	35.92
416.457	34.81
416.918	38.22
417.379	37.16
417.841	35.93
418.302	37.89
418.763	36.28
419.225	37.45
419.686	35.9
420.147	35.18
420.608	37.76
421.069	35.76
421.53	36.56
421.991	37.66
422.453	37.19
422.914	37.74
423.375	38.09
423.836	36.84
424.297	38.05
424.757	38.32
425.218	37.63
425.679	36.69
426.14	37.29
426.601	36.31
427.062	38.64
427.522	37.57
427.983	37.47
428.444	38.46
428.904	38.34
429.365	37.78
429.826	37.54
430.286	38.59
430.747	36.62
431.207	38.66
431.668	41.02
432.128	38.45
432.589	39.17
433.049	39.95
433.509	38.83
433.97	38.32
434.43	39.23
434.89	38.44
435.351	39.18
435.811	36.84
436.271	39.27
436.731	37.89
437.191	41.07
437.651	38.98
438.112	39.35
438.572	39.66
439.032	37.15
439.492	42.13
439.952	37.23
440.412	36.41
440.871	41.23
441.331	40.23
441.791	38.11
442.251	40.35
442.711	38.99
443.171	42.51
443.63	41.06
444.09	39.55
444.55	36.84
445.009	42.23
445.469	39.32
445.929	38.73
446.388	38.72
446.848	41.3
447.307	38.28
447.767	40.89
448.226	38.56
448.686	40.49
449.145	41.04
449.604	39.48
450.064	42.45
450.523	39.03
450.982	40.67
451.442	40.08
451.901	39.25
452.36	39.2
452.819	38.28
453.278	42.16
453.737	40.11
454.197	40.72
454.656	42.6
455.115	39.37
455.574	40.93
456.033	40.06
456.492	38.22
456.95	40.77
457.409	40.8
457.868	40.48
458.327	43.05
458.786	40.12
459.245	39.19
459.703	41.51
460.162	40.35
460.621	39.33
461.079	40.17
461.538	42.48
461.997	41.05
462.455	37.46
462.914	40.96
463.372	40.28
463.831	41.42
464.289	41.38
464.748	40.19
465.206	37.71
465.664	40.63
466.123	38.41
466.581	38.46
467.039	41.2
467.497	39.19
467.956	40.46
468.414	44.4
468.872	37.85
469.33	38.54
469.788	43.81
470.246	41.31
470.704	40.54
471.162	42.95
471.62	42.47
472.078	41.76
472.536	38.35
472.994	38.45
473.452	41.94
473.91	42.66
474.368	38.67
474.826	41.82
475.283	40.76
475.741	41.54
476.199	45.22
476.656	41.47
477.114	44.21
477.572	37.05
478.029	40.52
478.487	41.66
478.944	41.29
479.402	41.94
479.859	40.22
480.317	37.88
480.774	39.97
481.232	37.53
481.689	42.85
482.146	40.1
482.604	39.86
483.061	42.17
483.518	41.43
483.975	39.2
484.433	38.3
484.89	39.15
485.347	39.3
485.804	40.68
486.261	40.72
486.718	38
487.175	39.27
487.632	39.71
488.089	42.39
488.546	40.09
489.003	40.06
489.46	38.82
489.917	38.2
490.373	42.55
490.83	41.3
491.287	41.74
491.744	39.59
492.2	40.42
492.657	40.6
493.114	39.34
493.57	40.99
494.027	35.34
494.484	44.54
494.94	42.5
495.397	42.05
495.853	40.01
496.31	41.75
496.766	38.26
497.222	40.79
497.679	40.19
498.135	37.45
498.591	40.26
499.048	39.29
499.504	41.03
499.96	39.99
500.416	42.04
500.872	42.2
501.329	41.45
501.785	40.99
502.241	42.36
502.697	41.51
503.153	43.18
503.609	40.78
504.065	40.77
504.521	42.85
504.977	39.88
505.432	38.8
505.888	42.26
506.344	42.14
506.8	42.2
507.256	40.93
507.711	41.21
508.167	39.43
508.623	41.2
509.078	39.68
509.534	40.36
509.99	39.71
510.445	39.57
510.901	41.72
511.356	40.13
511.812	41.77
512.267	41.29
512.722	41.54
513.178	40.55
513.633	40.58
514.089	43.33
514.544	42.71
514.999	39.97
515.454	40.46
515.91	39.78
516.365	42.54
516.82	41.33
517.275	41.95
517.73	43.26
518.185	38.76
518.64	42.39
519.095	40.24
519.55	41.84
520.005	41.93
520.46	40.92
520.915	41.56
521.37	40.03
521.825	44.63
522.28	41.77
522.734	40.58
523.189	40.95
523.644	42.11
524.099	44.3
524.553	43.04
525.008	40.98
525.462	41.51
525.917	39.86
526.372	41.04
526.826	41.01
527.281	40.85
527.735	40.22
528.19	42.4
528.644	42.93
529.098	42.94
529.553	41.57
530.007	40.63
530.461	43.43
530.916	40.61
531.37	42.75
531.824	43.42
532.278	43.52
532.732	43.96
533.186	44.45
533.641	41.91
534.095	42.85
534.549	45.75
535.003	42.39
535.457	43.7
535.911	43.7
536.365	42.03
536.818	44.24
537.272	42.33
537.726	42.61
538.18	41.78
538.634	42.2
539.087	42.98
539.541	43.31
539.995	39.6
540.449	43.04
540.902	42.75
541.356	42.95
541.809	43.08
542.263	40.72
542.716	42.31
543.17	42.69
543.623	44.02
544.077	40.35
544.53	41.57
544.984	44.63
545.437	44.42
545.89	42.43
546.344	41.02
546.797	45.04
547.25	41.41
547.703	41.36
548.157	45.98
548.61	40.85
549.063	44.83
549.516	43.19
549.969	43.7
550.422	43.29
550.875	42.97
551.328	45.64
551.781	45.18
552.234	41.57
552.687	41.84
553.14	45.15
553.592	45.73
554.045	44.98
554.498	44.84
554.951	45.63
555.404	43.48
555.856	45.28
556.309	43.54
556.762	45.96
557.214	45.28
557.667	43.47
558.119	44.35
558.572	43.79
559.024	45.39
559.477	45.52
559.929	41.45
560.382	42.86
560.834	46.47
561.286	45.05
561.739	45.3
562.191	46.05
562.643	45.05
563.095	44.37
563.548	44.08
564	46.16
564.452	43.8
564.904	44.49
565.356	44.3
565.808	45.02
566.26	46.57
566.712	46.8
567.164	44.26
567.616	43.69
568.068	46.55
568.52	46.32
568.972	46.66
569.424	44.71
569.876	45.17
570.327	44.71
570.779	45.31
571.231	44.08
571.682	44.89
572.134	44.1
572.586	45.56
573.037	45.54
573.489	44.72
573.941	45.16
574.392	45.66
574.844	45.41
575.295	44.22
575.746	44.72
576.198	45.74
576.649	45.77
577.101	42.49
577.552	46.94
578.003	45.62
578.454	45.09
578.906	44.27
579.357	47.17
579.808	46.25
580.259	46.06
580.71	44.89
581.161	44.74
581.612	47.12
582.064	44.21
582.515	46.31
582.965	46.07
583.416	45.04
583.867	44.76
584.318	45.42
584.769	45.02
585.22	44.39
585.671	44.88
586.122	46.34
586.572	44.92
587.023	46.04
587.474	44.85
587.924	45.02
588.375	43.58
588.826	46.78
589.276	44.84
589.727	45.62
590.177	46.47
590.628	45.24
591.078	43.39
591.529	43.01
591.979	44.05
592.429	44.77
592.88	46.37
593.33	46.28
593.78	46.14
594.231	47.1
594.681	46.95
595.131	44.36
595.581	46.98
596.031	44.74
596.481	46.06
596.932	45.64
597.382	46.09
597.832	43.56
598.282	44.51
598.732	45.72
599.182	45.4
599.632	46.13
600.081	46.13
600.531	46.39
600.981	44.35
601.431	43.83
601.881	44.07
602.33	44.88
602.78	45.73
603.23	44.59
603.679	45.89
604.129	45.29
604.579	46.58
605.028	45.7
605.478	44.28
605.927	44.83
606.377	45.54
606.826	44.52
607.276	44.92
607.725	44.6
608.175	44.55
608.624	45.44
609.073	44.19
609.522	44.16
609.972	45.34
610.421	44.86
610.87	45.29
611.319	44.74
611.768	45.93
612.218	45.95
612.667	45.06
613.116	44.65
613.565	45.52
614.014	45.02
614.463	45.78
614.912	45.96
615.361	46.39
615.81	45.73
616.258	45.28
616.707	46.22
617.156	46.74
617.605	43.76
618.054	46.19
618.502	43.59
618.951	45.82
619.4	45.78
619.848	44.4
620.297	45.47
620.745	44.62
621.194	43.36
621.642	44.49
622.091	44.71
622.539	44.68
622.988	45.09
623.436	45.63
623.885	45.58
624.333	45.46
624.781	45.46
625.23	45.36
625.678	44.92
626.126	44.52
626.574	45.99
627.022	44.82
627.471	44.15
627.919	45.69
628.367	45.2
628.815	45.56
629.263	45.93
629.711	44.92
630.159	45.39
630.607	44.28
631.055	45.99
631.503	44.25
631.95	45.16
632.398	43.06
632.846	44.95
633.294	44.37
633.742	44.94
634.189	44.53
634.637	45.58
635.085	44.98
635.532	44.46
635.98	44.73
636.427	44.32
636.875	44.74
637.323	44.31
637.77	45.52
638.217	43.64
638.665	45.46
639.112	45.52
639.56	44.32
640.007	43.78
640.454	45.27
640.902	44.66
641.349	44.8
641.796	44.71
642.243	44.98
642.69	44.44
643.138	44.95
643.585	43.99
644.032	46.1
644.479	44.52
644.926	43.46
645.373	45.24
645.82	44.64
646.267	45.08
646.714	45.65
647.161	46.59
647.607	44.68
648.054	45.16
648.501	45.18
648.948	44.4
649.395	44.06
649.841	44.9
650.288	44.57
650.735	43.65
651.181	45.26
651.628	46.06
652.075	45.7
652.521	45.21
652.968	45.33
653.414	45.57
653.861	44.9
654.307	44.27
654.753	44.55
655.2	44.98
655.646	45.31
656.092	44.86
656.539	45.05
656.985	45.36
657.431	45.72
657.877	43.93
658.324	44.61
658.77	43.99
659.216	44.92
659.662	44.79
660.108	45.07
660.554	44.33
661	43.11
661.446	44.9
661.892	44.7
662.338	44.69
662.784	45.69
663.23	44.29
663.675	46.28
664.121	44.19
664.567	44.5
665.013	46.17
665.458	45.7
665.904	45.24
666.35	45.39
666.795	44.31
667.241	43.65
667.687	45.31
668.132	44.83
668.578	45.35
669.023	44.16
669.469	45.41
669.914	44.52
670.359	45.69
670.805	45.19
671.25	44.36
671.695	45.17
672.141	44.45
672.586	44.21
673.031	45.38
673.476	45.41
673.922	45.73
674.367	43.56
674.812	44.78
675.257	45.62
675.702	43.8
676.147	44.2
676.592	43.57
677.037	44.82
677.482	45.57
677.927	43.92
678.372	45.95
678.817	43.58
679.261	44.96
679.706	45.6
680.151	43.78
680.596	45.55
681.04	44.33
681.485	44.09
681.93	43.85
682.374	43.79
682.819	44.28
683.264	45.76
683.708	45.2
684.153	44.2
684.597	44.31
685.042	45.4
685.486	45.68
685.93	42.94
686.375	46.03
686.819	44.83
687.263	45.1
687.708	44.84
688.152	44.13
688.596	43.8
689.04	45.1
689.485	46.06
689.929	45.19
690.373	44.75
690.817	44.79
691.261	44.12
691.705	44.21
692.149	45.1
692.593	44.69
693.037	44.16
693.481	44.08
693.925	44.8
694.369	45.22
694.812	44.71
695.256	45.43
695.7	44.33
696.144	44.36
696.587	44.29
697.031	44.53
697.475	44.76
697.918	44.27
698.362	43.96
698.806	44.39
699.249	43.76
699.693	44.6
700.136	44.05
700.58	43.72
701.023	44.88
701.466	45.52
701.91	44.43
702.353	44.79
702.796	44.75
703.24	43.56
703.683	43.52
704.126	46
704.569	43.74
705.013	44.48
705.456	43.82
705.899	43.7
706.342	44.93
706.785	43.26
707.228	44.33
707.671	43.73
708.114	43.3
708.557	43.48
709	43.94
709.443	44.56
709.886	43.02
710.328	44.45
710.771	44.78
711.214	44.28
711.657	43.38
712.099	44.9
712.542	44.61
712.985	44.02
713.427	44.82
713.87	44.02
714.313	44.27
714.755	44.13
715.198	45.46
715.64	43.4
716.083	43.57
716.525	44
716.967	43.25
717.41	44.12
717.852	44.15
718.295	44.59
718.737	44.56
719.179	44.35
719.621	45.46
720.063	43.88
720.506	44.03
720.948	43.49
721.39	44.16
721.832	43.21
722.274	43.82
722.716	44.02
723.158	42.77
723.6	45.6
724.042	44.33
724.484	44.93
724.926	44.33
725.368	44.16
725.81	43.65
726.251	44.64
726.693	44.02
727.135	44.3
727.577	43.31
728.018	44.19
728.46	43.34
728.902	44.31
729.343	43.99
729.785	43.27
730.226	44.32
730.668	43.13
731.109	43.53
731.551	43.02
731.992	42.95
732.434	44.28
732.875	43.78
733.316	43.47
733.758	43.37
734.199	42.89
734.64	44.23
735.081	44.08
735.523	43.61
735.964	44.3
736.405	43.39
736.846	44.15
737.287	44.21
737.728	43.11
738.169	43.18
738.61	43.52
739.051	43.46
739.492	44.03
739.933	42.52
740.374	44.22
740.815	43.74
741.256	43.14
741.696	43.5
742.137	44.16
742.578	43.2
743.019	43.18
743.459	43.57
743.9	43.5
744.341	43.11
744.781	43.8
745.222	43.33
745.662	44.89
746.103	42.82
746.543	42.58
746.984	44.06
747.424	43.51
747.865	43.76
748.305	43.05
748.745	45.19
749.186	43.19
749.626	42.86
750.066	44.48
750.506	43.5
750.947	44.04
751.387	42.72
751.827	44.88
752.267	43.81
752.707	45.11
753.147	42.84
753.587	43.49
754.027	44.01
754.467	43.89
754.907	44.22
755.347	44.15
755.787	41.81
756.227	44.26
756.667	42.59
757.107	44.3
757.546	42.79
757.986	43.84
758.426	44.07
758.865	44.19
759.305	44.28
759.745	43.85
760.184	44.36
760.624	43.08
761.063	42.79
761.503	42.71
761.943	43.14
762.382	44.4
762.821	43.43
763.261	43.25
763.7	42.62
764.14	44.98
764.579	43.29
765.018	43.14
765.457	43.27
765.897	42.87
766.336	44.66
766.775	43.36
767.214	43.65
767.653	42.8
768.092	44.06
768.531	42.81
768.97	43.6
769.409	43.53
769.848	42.7
770.287	43.6
770.726	43.29
771.165	44.25
771.604	43.05
772.043	42.88
772.482	42.9
772.92	43.88
773.359	43.54
773.798	43.64
774.237	42.78
774.675	42.76
775.114	44.08
775.553	42.7
775.991	42.8
776.43	42.9
776.868	43.24
777.307	43.13
777.745	43.35
778.184	42.82
778.622	42.78
779.06	42.79
779.499	43.36
779.937	43.37
780.375	43.36
780.814	43.27
781.252	43.45
781.69	42.5
782.128	42.79
782.566	42.6
783.004	43.52
783.443	43.17
783.881	42.5
784.319	42.46
784.757	42.74
785.195	43.12
785.633	42.41
786.071	43.48
786.508	43.71
786.946	43.1
787.384	44.66
787.822	43.41
788.26	43.52
788.697	42.58
789.135	44.02
789.573	43.17
790.011	42.67
790.448	42.58
790.886	43.09
791.323	43.66
791.761	44.02
792.198	43.04
792.636	43.99
793.073	43.23
793.511	43.94
793.948	44.99
794.386	42.46
794.823	43.43
795.26	42.39
795.698	42.9
796.135	43.84
796.572	42.11
797.009	42.83
797.446	43.52
797.884	43.36
798.321	43.2
798.758	41.84
799.195	43.22
799.632	42.16
800.069	42.89
800.506	43.41
800.943	42.41
801.38	42.96
801.817	43.52
802.254	41.93
802.69	43.21
803.127	42.83
803.564	43.03
804.001	41.94
804.438	42.61
804.874	42.36
805.311	42.28
805.748	43.33
806.184	44.3
806.621	42.99
807.057	42.75
807.494	43.32
807.93	42.97
808.367	42.7
808.803	42.51
809.24	43.07
809.676	43.15
810.112	42.31
810.549	43.33
810.985	43.07
811.421	43.69
811.857	42.26
812.294	42.54
812.73	42.25
813.166	43.1
813.602	42.64
814.038	42.53
814.474	41.97
814.91	42.91
815.346	43.08
815.782	41.84
816.218	42.67
816.654	42.16
817.09	42.19
817.526	42.68
817.962	42.53
818.398	41.3
818.833	42.23
819.269	42.56
819.705	42.78
820.141	42.63
820.576	43.19
821.012	42.67
821.447	43.12
821.883	42.61
822.319	42.37
822.754	42.82
823.19	43.03
823.625	42.36
824.061	42.66
824.496	41.73
824.931	42.92
825.367	42.51
825.802	42.03
826.237	43.33
826.673	42.59
827.108	42.23
827.543	42.47
827.978	42.53
828.413	42.91
828.849	42.2
829.284	42.28
829.719	42.53
830.154	42.31
830.589	43.07
831.024	42.75
831.459	42.96
831.894	42.98
832.329	42.73
832.763	42.75
833.198	42.74
833.633	42.23
834.068	42.03
834.503	42.18
834.937	42.57
835.372	42.15
835.807	42.48
836.241	42.12
836.676	42.69
837.111	43.32
837.545	42.54
837.98	41.94
838.414	41.83
838.849	43.5
839.283	42.75
839.717	42.96
840.152	41.84
840.586	42.13
841.021	42.91
841.455	42.58
841.889	41.46
842.323	41.45
842.758	41.77
843.192	42.34
843.626	43.12
844.06	42.11
844.494	42.33
844.928	42.34
845.362	41.97
845.796	42.8
846.23	42.3
846.664	42.69
847.098	42.57
847.532	42.36
847.966	42.78
848.4	42.97
848.834	42.11
849.267	42
849.701	42.3
850.135	41.72
850.569	42.53
851.002	41.66
851.436	42.09
851.87	41.91
852.303	42.01
852.737	42.97
853.17	42.03
853.604	42.63
854.037	42.59
854.471	42.04
854.904	42.36
855.337	41.3
855.771	42.08
856.204	41.89
856.637	42.12
857.071	43.16
857.504	41.97
857.937	41.75
858.37	42.44
858.804	41.59
859.237	41.86
859.67	42.41
860.103	42.06
860.536	42.25
860.969	42.26
861.402	42.02
861.835	42.62
862.268	42.21
862.701	42.74
863.134	42.31
863.566	42.39
863.999	42.06
864.432	42.16
864.865	41.95
865.298	41.32
865.73	42.72
866.163	42.35
866.596	42.17
867.028	42.63
867.461	41.5
867.893	41.86
868.326	42.69
868.758	41.71
869.191	42.08
869.623	42.03
870.056	42.41
870.488	41.54
870.92	42.06
871.353	42.23
871.785	41.54
872.217	42.15
872.65	42.31
873.082	42.5
873.514	40.93
873.946	42.42
874.378	42.02
874.81	42.79
875.243	41.84
875.675	41.73
876.107	42.17
876.539	41.77
876.971	41.83
877.403	42.02
877.834	41.88
878.266	42.11
878.698	42.44
879.13	41.52
879.562	41.57
879.994	41.94
880.425	42.31
880.857	42.05
881.289	41.69
881.72	41.39
882.152	41.73
882.584	41.42
883.015	41.38
883.447	41.2
883.878	41.71
884.31	42.31
884.741	41.11
885.173	41.82
885.604	42.04
886.035	42.13
886.467	41.37
886.898	41.94
887.329	41.57
887.76	41.99
888.192	41.96
888.623	41.63
889.054	41.13
889.485	41.25
889.916	41.92
890.347	41.29
890.778	41.46
891.209	41.47
891.64	41.11
892.071	41.25
892.502	41.05
892.933	41.38
893.364	41.79
893.795	41.52
894.226	40.97
894.657	41.42
895.087	42.2
895.518	41.03
895.949	41.36
896.38	41.62
896.81	41.71
897.241	41.73
897.671	41.13
898.102	41.78
898.533	41.65
898.963	42.05
899.394	41.37
899.824	41.76
900.254	41.49
900.685	41.75
901.115	41.72
901.546	41.27
901.976	42.08
902.406	41.82
902.836	41.72
903.267	41.23
903.697	41.18
904.127	41.36
904.557	41.63
904.987	41.06
905.417	41.41
905.847	41.76
906.277	40.81
906.707	41
907.137	41.07
907.567	41.68
907.997	41.33
908.427	41.09
908.857	41.92
909.287	40.71
909.717	41.63
910.146	41.28
910.576	41.09
911.006	40.93
911.436	41.06
911.865	41.16
912.295	41.87
912.724	41.22
913.154	41.38
913.584	41.02
914.013	41.05
914.443	40.73
914.872	40.45
915.302	41.38
915.731	40.9
916.16	40.91
916.59	41.31
917.019	40.77
917.448	41.63
917.878	41.29
918.307	40.64
918.736	40.91
919.165	40.75
919.594	40.55
920.023	41.12
920.452	40.68
920.882	40.94
921.311	41.29
921.74	41.03
922.169	40.69
922.597	40.8
923.026	41.22
923.455	40.88
923.884	41.1
924.313	40.84
924.742	41.18
925.171	41.38
925.599	41.17
926.028	41.11
926.457	40.61
926.885	40.16
927.314	40.45
927.743	40.65
928.171	40.6
928.6	40.73
929.028	39.95
929.457	40.96
929.885	40.61
930.314	40.63
930.742	41.13
931.17	40.66
931.599	40.26
932.027	41.61
932.455	40.69
932.884	40.69
933.312	40.78
933.74	40.64
934.168	40.49
934.596	40.57
935.025	40.51
935.453	41.25
935.881	40.47
936.309	40.12
936.737	40.48
937.165	40.64
937.593	40.62
938.021	40.39
938.449	40.99
938.876	40.37
939.304	40.52
939.732	40.45
940.16	40.52
940.588	40.71
941.015	40.54
941.443	41.44
941.871	39.93
942.298	40.59
942.726	40.91
943.154	40.28
943.581	40.7
944.009	40.22
944.436	40.49
944.864	40.43
945.291	40.06
945.718	40.17
946.146	40.6
946.573	40.63
947.001	40.08
947.428	39.92
947.855	40.73
948.282	40.4
948.71	40.45
949.137	40.2
949.564	40.61
949.991	40.37
950.418	40.8
950.845	40.93
951.272	40.43
951.699	40.14
952.126	40.95
952.553	39.48
952.98	40.43
953.407	40.15
953.834	40.29
954.261	39.79
954.688	40.53
955.114	40.6
955.541	40.25
955.968	40.22
956.395	40.42
956.821	39.61
957.248	39.58
957.674	39.66
958.101	40.9
958.528	39.76
958.954	39.83
959.381	39.76
959.807	40.07
960.234	40.47
960.66	40.15
961.086	40.18
961.513	39.23
961.939	40.53
962.365	39.74
962.792	39.88
963.218	40.19
963.644	40.12
964.07	40.2
964.496	39.68
964.923	39.4
965.349	40.07
965.775	40.26
966.201	39.8
966.627	40.19
967.053	39.95
967.479	40.24
967.905	40.3
968.331	40.11
968.756	39.41
969.182	40.14
969.608	39.74
970.034	39.77
970.46	39.05
970.885	40.12
971.311	39.88
971.737	40.02
972.162	39.97
972.588	39.2
973.014	39.7
973.439	39.64
973.865	39.96
974.29	40.24
974.716	39.41
975.141	39.5
975.567	40.02
975.992	39.99
976.417	39.62
976.843	39.9
977.268	39.49
977.693	39.73
978.119	39.43
978.544	39.45
978.969	40.43
979.394	38.84
979.819	39.78
980.244	39.09
980.669	39.81
981.095	39.43
981.52	40.02
981.945	39.57
982.369	39.83
982.794	39.31
983.219	39.46
983.644	39.15
984.069	39.52
984.494	40.1
984.919	39.65
985.343	39.3
985.768	39.89
986.193	39.19
986.618	39.95
987.042	38.82
987.467	39.62
987.891	39.49
988.316	39.55
988.741	39.73
989.165	39.22
989.59	39.81
990.014	39.59
990.438	39.82
990.863	39.51
991.287	39.43
991.712	39.62
992.136	39.19
992.56	39.28
992.984	39.47
993.409	39.25
993.833	39.09
994.257	39.3
994.681	39.71
995.105	39.52
995.529	39.22
995.953	39.2
996.377	39.15
996.801	39.03
997.225	39.37
997.649	39.16
998.073	39.84
998.497	39.44
998.921	39.48
999.345	39.24
999.769	39.06
1000.192	39.53
1000.616	39.19
1001.04	38.62
1001.464	39.29
1001.887	39.24
1002.311	39.62
1002.734	39.33
1003.158	39.31
1003.582	39.32
1004.005	39.76
1004.429	39.31
1004.852	39.39
1005.275	39.09
1005.699	39.13
1006.122	38.97
1006.546	39.05
1006.969	39.53
1007.392	39.22
1007.815	38.96
1008.239	39.44
1008.662	39.37
1009.085	38.99
1009.508	38.89
1009.931	39.21
1010.354	39.65
1010.778	39.58
1011.201	39.01
1011.624	39.11
1012.047	38.82
1012.469	39.54
1012.892	39.04
1013.315	39.05
1013.738	38.27
1014.161	38.95
1014.584	39.1
1015.007	39.24
1015.429	38.88
1015.852	39.02
1016.275	38.54
1016.697	38.9
1017.12	38.64
1017.543	39.25
1017.965	39.19
1018.388	38.61
1018.81	38.57
1019.233	38.71
1019.655	39.68
1020.078	38.89
1020.5	38.64
1020.922	38.84
1021.345	38.9
1021.767	38.72
1022.189	39.32
1022.612	38.8
1023.034	39.1
1023.456	38.69
1023.878	39.12
1024.301	38.99
1024.723	38.7
1025.145	38.71
1025.567	39.23
1025.989	38.75
1026.411	38.92
1026.833	38.52
1027.255	38.54
1027.677	39.69
1028.099	39.11
1028.52	38.41
1028.942	38.7
1029.364	38.71
1029.786	39.11
1030.208	38.81
1030.629	39.49
1031.051	38.05
1031.473	38.56
1031.894	38.28
1032.316	38.53
1032.738	38.47
1033.159	38.83
1033.581	38.06
1034.002	38.08
1034.424	37.92
1034.845	37.85
1035.267	39.09
1035.688	38.64
1036.109	39.18
1036.531	38.48
1036.952	38.48
1037.373	39.04
1037.794	38.75
1038.216	39.01
1038.637	38.42
1039.058	38.83
1039.479	38.92
1039.9	38.83
1040.321	38.64
1040.742	38.6
1041.163	38.91
1041.584	38.34
1042.005	38.17
1042.426	39.11
1042.847	37.8
1043.268	38.06
1043.689	38.95
1044.11	39.1
1044.53	38.51
1044.951	38.39
1045.372	38.68
1045.793	38.52
1046.213	38.57
1046.634	38.58
1047.055	38.52
1047.475	38.38
1047.896	38.14
1048.316	38.52
1048.737	39.23
1049.157	37.9
1049.578	39.42
1049.998	38.51
1050.419	38.38
1050.839	38.26
1051.259	38.18
1051.68	38.5
1052.1	38.7
1052.52	38.33
1052.94	38.68
1053.361	38.31
1053.781	38.49
1054.201	37.42
1054.621	38.17
1055.041	37.9
1055.461	39
1055.881	38.52
1056.301	38.81
1056.721	37.87
1057.141	38.29
1057.561	39.52
1057.981	38.23
1058.401	38.44
1058.82	38.36
1059.24	38
1059.66	37.66
1060.08	38.52
1060.499	38.41
1060.919	38.07
1061.339	38.78
1061.758	38.62
1062.178	38.01
1062.598	38.85
1063.017	38.18
1063.437	37.84
1063.856	38.04
1064.276	37.75
1064.695	38.17
1065.114	37.67
1065.534	37.7
1065.953	37.28
1066.372	38.02
1066.792	37.72
1067.211	37.96
1067.63	38.02
1068.049	38.64
1068.469	37.71
1068.888	38.6
1069.307	38.28
1069.726	37.6
1070.145	38.89
1070.564	37.34
1070.983	37.68
1071.402	37.17
1071.821	36.82
1072.24	37.49
1072.659	37.6
1073.078	37.49
1073.496	36.69
1073.915	38.9
1074.334	37.67
1074.753	36.6
1075.171	37.68
1075.59	38.37
1076.009	37.71
1076.427	37.66
1076.846	37.38
1077.265	38.35
1077.683	37.65
1078.102	37.07
1078.52	38.9
1078.939	38.11
1079.357	37.5
1079.776	38.04
1080.194	37.77
1080.612	38.05
1081.031	37.52
1081.449	37.51
1081.867	37.55
1082.285	38.15
1082.704	35.92
1083.122	37.76
1083.54	38.43
1083.958	37.65
1084.376	37.73
1084.794	37.32
1085.212	37.02
1085.63	37.35
1086.048	36.65
1086.466	38.17
1086.884	36.63
1087.302	38.01
1087.72	37.67
1088.138	36.47
1088.555	39.32
1088.973	37.65
1089.391	36.43
1089.809	38.14
1090.226	36.77
1090.644	36.63
1091.062	38.14
1091.479	37.35
1091.897	37.77
1092.314	36.98
1092.732	37
1093.15	36.81
1093.567	36.67
1093.984	36.62
1094.402	36.05
1094.819	36.55
1095.237	39.19
1095.654	36.74
1096.071	33.78
1096.488	37.67
1096.906	39.41
1097.323	38.47
1097.74	36.3
1098.157	36.94
1098.574	37.68
1098.991	37.64
1099.409	37.16
1099.826	38.22
1100.243	34.28
1100.66	39.22
1101.077	36.37
1101.494	36.49
1101.91	36.56
1102.327	37.03
1102.744	36.66
1103.161	36.97
1103.578	36.63
1103.994	35.29
1104.411	38.4
1104.828	37.96
1105.245	35.73
1105.661	33.89
1106.078	35.47
1106.494	36.68
1106.911	35.46
1107.328	34.87
1107.744	35.99
1108.161	32.22
1108.577	35.66
1108.993	35.08
1109.41	36.99
1109.826	38.25
1110.242	38.21
1110.659	35.99
1111.075	37.75
1111.491	35.9
1111.908	35.91
1112.324	34.29
1112.74	53.1
1113.156	36.54
1113.572	35.59
1113.988	34.39
1114.404	36.4
1114.82	36.45
1115.236	35.8
1115.652	34.14
1116.068	34.21
1116.484	35.97
1116.9	38.72
1117.316	38.73
1117.732	-3.23
1118.147	50
1118.563	71.43
1118.979	125
