Data from JCR0034_Black1_Reflection_00002.txt Node
Date: Fri Jul 31 15:11:14 ACST 2020
User: Stacey Dix
Spectrometer: MAYP113282
Scans to average: 1
Trigger mode: 0
Integration Time (sec): 1.000000E-1
Electric dark correction enabled: true
Boxcar width: 0
XAxis mode: Wavelengths
Number of Pixels in Spectrum: 2068
>>>>>Begin Spectral Data<<<<<
198.791	0
199.266	-38.89
199.74	366.67
200.215	-66.67
200.69	11.95
201.164	-12.58
201.639	12.44
202.114	6.5
202.588	8.94
203.063	26.22
203.537	20.18
204.012	13.78
204.486	30.56
204.961	-9.01
205.435	15.48
205.909	18.77
206.384	27.41
206.858	3.07
207.332	-6.44
207.807	22.97
208.281	12.99
208.755	25.06
209.229	29.02
209.703	-5.2
210.177	20.55
210.651	3.47
211.126	28.4
211.6	18.68
212.074	18.64
212.548	28.96
213.021	31.08
213.495	10.61
213.969	17.75
214.443	9.84
214.917	11.82
215.391	3.1
215.864	16.57
216.338	14.31
216.812	21.73
217.286	15.28
217.759	13.49
218.233	11.01
218.706	8.61
219.18	10.01
219.654	14.93
220.127	8.18
220.6	14.58
221.074	4.73
221.547	7.77
222.021	9.39
222.494	13.38
222.967	8.76
223.441	6.76
223.914	14.34
224.387	7.07
224.86	8.53
225.334	4.17
225.807	6.92
226.28	7.52
226.753	6.46
227.226	2.98
227.699	9.28
228.172	5.01
228.645	9.19
229.118	6.57
229.591	4.67
230.064	7.01
230.537	8.14
231.01	4.57
231.482	5.09
231.955	5.26
232.428	5.96
232.901	6.64
233.373	4.4
233.846	6.16
234.319	5.99
234.791	4.71
235.264	4.71
235.736	4.43
236.209	6.78
236.681	4.52
237.154	4.78
237.626	4.95
238.099	5.11
238.571	5.07
239.044	4.61
239.516	4.24
239.988	4.8
240.46	5.54
240.933	4.25
241.405	4.29
241.877	4.54
242.349	4.61
242.821	6.13
243.293	5.19
243.765	3.66
244.237	4.13
244.71	4.83
245.181	4.19
245.653	5.4
246.125	3.98
246.597	4.58
247.069	4.85
247.541	4.96
248.013	5.3
248.485	5.87
248.956	5.15
249.428	5.68
249.9	4.51
250.371	4.59
250.843	3.9
251.315	4.6
251.786	4.62
252.258	4.17
252.729	3.68
253.201	3.52
253.672	3.86
254.144	4.48
254.615	3.76
255.086	4.01
255.558	3.96
256.029	4.1
256.5	3.77
256.972	3.76
257.443	3.31
257.914	3.26
258.385	4.08
258.856	2.84
259.327	4.07
259.799	4.36
260.27	3.67
260.741	3.36
261.212	3.41
261.683	4.04
262.154	3.86
262.624	3.79
263.095	3.86
263.566	3.66
264.037	4.03
264.508	3.59
264.979	3.9
265.449	4.08
265.92	4.15
266.391	3.94
266.861	3.26
267.332	3.42
267.803	3.34
268.273	3.49
268.744	3.6
269.214	3.51
269.685	3.37
270.155	3.57
270.626	3.74
271.096	3.08
271.566	3.12
272.037	3.02
272.507	4.04
272.977	4.95
273.448	3.82
273.918	3.03
274.388	3.18
274.858	3.8
275.328	3.58
275.798	3.43
276.268	3.62
276.738	3.88
277.208	4
277.678	4.46
278.148	3.97
278.618	2.76
279.088	3.86
279.558	3.26
280.028	3.33
280.498	3.95
280.968	3.01
281.437	3.95
281.907	3.95
282.377	3.47
282.847	3.19
283.316	2.72
283.786	3.94
284.255	2.75
284.725	2.97
285.194	3.33
285.664	3.34
286.133	3.27
286.603	3.4
287.072	3.54
287.542	3.22
288.011	3.19
288.48	3.01
288.95	3.51
289.419	3.65
289.888	2.84
290.357	2.72
290.827	3.3
291.296	2.81
291.765	3.4
292.234	3.9
292.703	3.77
293.172	2.78
293.641	3.58
294.11	3.2
294.579	3
295.048	2.55
295.517	3.88
295.986	3.53
296.455	3.63
296.923	3.29
297.392	3.67
297.861	3.77
298.33	3.41
298.798	3.02
299.267	3.24
299.736	3.77
300.204	4.01
300.673	2.41
301.141	3.18
301.61	3.79
302.079	3.1
302.547	2.99
303.015	3.25
303.484	3.51
303.952	3.12
304.421	3.73
304.889	3.2
305.357	2.68
305.825	3.76
306.294	3.15
306.762	3.26
307.23	3.45
307.698	3.08
308.166	2.94
308.634	3.77
309.103	3.73
309.571	3.14
310.039	3.78
310.507	3.3
310.975	3.34
311.442	3.39
311.91	3.04
312.378	3.99
312.846	3.3
313.314	3.05
313.782	3.53
314.249	3.24
314.717	3.31
315.185	3.86
315.652	3.47
316.12	3.38
316.588	3.42
317.055	3.77
317.523	3
317.99	3.87
318.458	3.67
318.925	3.46
319.393	4.44
319.86	3.76
320.328	3.55
320.795	4.54
321.262	4.41
321.73	4.01
322.197	4.85
322.664	5.4
323.131	5.9
323.598	5.16
324.066	5.89
324.533	6.38
325	6.74
325.467	6.29
325.934	6.78
326.401	8.28
326.868	7.41
327.335	8.58
327.802	9.46
328.269	8.95
328.735	11.38
329.202	9.99
329.669	11.19
330.136	10.7
330.603	12.22
331.069	12.73
331.536	12.79
332.003	13.12
332.469	12.44
332.936	14
333.402	12.87
333.869	12.74
334.336	14.26
334.802	13.52
335.268	13.79
335.735	14.45
336.201	13.94
336.668	13.92
337.134	13.54
337.6	13.33
338.067	14.65
338.533	14.44
338.999	14.3
339.465	12.75
339.931	13.76
340.398	13.64
340.864	14.42
341.33	13.58
341.796	14.47
342.262	13.54
342.728	14.32
343.194	14.38
343.66	13.72
344.126	13.96
344.592	13.58
345.057	13.63
345.523	13.38
345.989	13.58
346.455	14.49
346.921	13.44
347.386	13.76
347.852	14.95
348.318	14.61
348.783	13.7
349.249	13.12
349.714	14.47
350.18	13.9
350.645	14.24
351.111	13.36
351.576	13.27
352.042	14.51
352.507	13.96
352.973	13.05
353.438	12.87
353.903	13.78
354.369	13.37
354.834	12.29
355.299	13.58
355.764	13.22
356.229	13.08
356.695	12.86
357.16	13.62
357.625	12.87
358.09	13.63
358.555	14.16
359.02	12.6
359.485	13.29
359.95	13.16
360.415	13.61
360.879	13.64
361.344	12.91
361.809	14.28
362.274	13.31
362.739	15.22
363.203	14.34
363.668	14.27
364.133	12.77
364.597	13.35
365.062	14.2
365.527	14
365.991	14.38
366.456	13.31
366.92	13.1
367.385	14.46
367.849	14.48
368.314	13.5
368.778	14.83
369.242	14.28
369.707	13.96
370.171	13.44
370.635	14.08
371.1	15.98
371.564	13.4
372.028	14.55
372.492	14.32
372.956	14.87
373.42	13.73
373.884	14.12
374.348	14.07
374.812	14.93
375.276	14.6
375.74	14.88
376.204	14.14
376.668	14.27
377.132	14.2
377.596	14.2
378.06	14.24
378.524	14.09
378.987	13.75
379.451	15.46
379.915	13.59
380.378	14.82
380.842	14.76
381.306	14.48
381.769	15.39
382.233	14.2
382.696	14.3
383.16	14.26
383.623	14.6
384.087	13.52
384.55	14
385.014	15.02
385.477	14.12
385.94	14.63
386.404	15.15
386.867	14.27
387.33	14.71
387.793	14.15
388.256	15.2
388.72	15.14
389.183	14.37
389.646	14.52
390.109	13.26
390.572	14.35
391.035	14.37
391.498	14.97
391.961	14.01
392.424	13.75
392.887	13.83
393.35	14.68
393.812	13.92
394.275	15.28
394.738	14.44
395.201	14.49
395.664	15.44
396.126	14.16
396.589	14.05
397.052	15.41
397.514	14.38
397.977	13.71
398.439	14.49
398.902	14.79
399.364	14.55
399.827	15.76
400.289	15.32
400.752	14.31
401.214	14.75
401.676	14.68
402.139	14.64
402.601	14.18
403.063	15.11
403.525	14.3
403.988	14.96
404.45	14.24
404.912	13.69
405.374	14.92
405.836	14.25
406.298	13.73
406.76	14.18
407.222	13.64
407.684	13.78
408.146	14.5
408.608	13.21
409.07	14.68
409.532	14.38
409.994	13.68
410.456	14.02
410.917	14.43
411.379	13.99
411.841	14.37
412.303	14.55
412.764	13.6
413.226	14.64
413.687	14.22
414.149	14.77
414.611	14.32
415.072	14.22
415.534	13.98
415.995	13.28
416.457	14.2
416.918	15.1
417.379	14.31
417.841	15.42
418.302	14.41
418.763	14.47
419.225	15.11
419.686	13.85
420.147	15.08
420.608	14.55
421.069	16.16
421.53	14.88
421.991	14.99
422.453	15.3
422.914	16.05
423.375	14.72
423.836	14.69
424.297	14.88
424.757	15.9
425.218	15.43
425.679	15.03
426.14	15.93
426.601	15.34
427.062	14.85
427.522	15.46
427.983	15.08
428.444	16.01
428.904	15.41
429.365	16.46
429.826	16.37
430.286	14.39
430.747	16.64
431.207	17.06
431.668	16.45
432.128	16.56
432.589	17.63
433.049	17.41
433.509	15.04
433.97	17.11
434.43	16.4
434.89	15.9
435.351	16.13
435.811	17.59
436.271	16.57
436.731	17.04
437.191	16.15
437.651	17.11
438.112	19.37
438.572	15.82
439.032	16.84
439.492	18
439.952	16.87
440.412	15.79
440.871	18.64
441.331	16.28
441.791	17.64
442.251	18.17
442.711	17.39
443.171	17.71
443.63	17.48
444.09	17.6
444.55	16.49
445.009	17.28
445.469	16.65
445.929	19.31
446.388	18.52
446.848	17.24
447.307	18.04
447.767	17.84
448.226	17.6
448.686	16.64
449.145	19.35
449.604	17.02
450.064	17.57
450.523	16.96
450.982	16.83
451.442	17.93
451.901	17.17
452.36	16.69
452.819	19.29
453.278	17.17
453.737	18.31
454.197	19.18
454.656	18.07
455.115	19.43
455.574	16.15
456.033	19.09
456.492	16.9
456.95	18.57
457.409	18.05
457.868	18.42
458.327	19.36
458.786	19.9
459.245	17.91
459.703	18.45
460.162	18.45
460.621	17.95
461.079	16.34
461.538	17.54
461.997	18.52
462.455	18.52
462.914	17.98
463.372	17.01
463.831	18.68
464.289	18.1
464.748	18.07
465.206	17.22
465.664	18.83
466.123	19.52
466.581	17.52
467.039	18.03
467.497	19.55
467.956	18.97
468.414	16.34
468.872	18.64
469.33	19.08
469.788	17.25
470.246	19.01
470.704	18.03
471.162	18.32
471.62	19.23
472.078	17.18
472.536	19.85
472.994	18.27
473.452	18.6
473.91	17.65
474.368	19.57
474.826	17.78
475.283	17.6
475.741	18.37
476.199	18
476.656	18.86
477.114	20.5
477.572	17.35
478.029	16.8
478.487	16.66
478.944	17.74
479.402	16.86
479.859	19.04
480.317	18.28
480.774	17.86
481.232	18.73
481.689	18.83
482.146	19.74
482.604	18.7
483.061	17.83
483.518	18.84
483.975	18.21
484.433	17.92
484.89	18.3
485.347	19.12
485.804	16.74
486.261	18.8
486.718	19
487.175	16.94
487.632	18.93
488.089	18.45
488.546	17.02
489.003	19.26
489.46	18.76
489.917	16.84
490.373	17.81
490.83	18.56
491.287	17.93
491.744	18.41
492.2	19.98
492.657	17.8
493.114	17.23
493.57	19.78
494.027	18.59
494.484	17.94
494.94	19.8
495.397	17.1
495.853	18.86
496.31	19.16
496.766	16.41
497.222	18.45
497.679	18.43
498.135	19.88
498.591	19.19
499.048	16.2
499.504	19.22
499.96	19.38
500.416	18.2
500.872	19.23
501.329	19.62
501.785	17.78
502.241	18.9
502.697	19.4
503.153	17.85
503.609	17.12
504.065	18.34
504.521	19.06
504.977	18.3
505.432	17.26
505.888	16.71
506.344	18.03
506.8	18.73
507.256	18.51
507.711	17.27
508.167	18.46
508.623	19.53
509.078	16.94
509.534	18.1
509.99	18.28
510.445	18.25
510.901	19.52
511.356	20.03
511.812	18.65
512.267	19.34
512.722	18.35
513.178	19.06
513.633	18.53
514.089	17.63
514.544	19.17
514.999	18.53
515.454	18.12
515.91	18.87
516.365	19.12
516.82	20.34
517.275	16.7
517.73	18.04
518.185	16.46
518.64	18.09
519.095	19.61
519.55	17.79
520.005	18.21
520.46	16.64
520.915	18.95
521.37	17.95
521.825	17.46
522.28	18.33
522.734	19.63
523.189	18.9
523.644	17.27
524.099	19.54
524.553	18.71
525.008	18.54
525.462	19.47
525.917	17.56
526.372	17.95
526.826	19.5
527.281	19.33
527.735	18.53
528.19	17.55
528.644	18.89
529.098	16.83
529.553	17.97
530.007	18.04
530.461	18.82
530.916	19.62
531.37	18.89
531.824	17.67
532.278	16.63
532.732	17.43
533.186	16.51
533.641	19
534.095	18.94
534.549	19.91
535.003	19.34
535.457	18.33
535.911	20.45
536.365	17.44
536.818	17.54
537.272	17.05
537.726	19.16
538.18	17.28
538.634	19.2
539.087	19.12
539.541	17.99
539.995	17.94
540.449	18.99
540.902	20.2
541.356	20.08
541.809	18.77
542.263	18.99
542.716	18.4
543.17	18.58
543.623	17.04
544.077	17.5
544.53	18.19
544.984	18.59
545.437	17.64
545.89	17.98
546.344	18.9
546.797	19.33
547.25	19.13
547.703	18.04
548.157	18.77
548.61	17.37
549.063	17.63
549.516	16.02
549.969	18.66
550.422	18.46
550.875	18.21
551.328	17.56
551.781	18.38
552.234	18.93
552.687	18.57
553.14	18.61
553.592	18.11
554.045	18.34
554.498	19.4
554.951	17.26
555.404	18.33
555.856	18.45
556.309	19.44
556.762	18.63
557.214	16.31
557.667	17.92
558.119	18.27
558.572	18.59
559.024	18.14
559.477	18.36
559.929	18.33
560.382	17.02
560.834	17.8
561.286	18.44
561.739	19.11
562.191	17.84
562.643	19.31
563.095	19.59
563.548	18.21
564	18.58
564.452	18.36
564.904	18.21
565.356	18.74
565.808	18.09
566.26	17.56
566.712	19.18
567.164	18.89
567.616	18.86
568.068	19.36
568.52	18.25
568.972	17.08
569.424	18.51
569.876	17.98
570.327	18.37
570.779	19.25
571.231	17.98
571.682	18.51
572.134	17.89
572.586	17.33
573.037	18.94
573.489	17.57
573.941	18.36
574.392	19.83
574.844	18.56
575.295	18
575.746	17.62
576.198	19.14
576.649	17.48
577.101	18.47
577.552	17.38
578.003	17.99
578.454	17.35
578.906	19.21
579.357	18.51
579.808	18.21
580.259	19.03
580.71	18.55
581.161	17.78
581.612	19.25
582.064	17.59
582.515	18.43
582.965	18.86
583.416	18.06
583.867	18.52
584.318	17.91
584.769	18.03
585.22	18.93
585.671	17.64
586.122	18.85
586.572	18.41
587.023	18.39
587.474	18.1
587.924	18.21
588.375	18.62
588.826	19.16
589.276	18.56
589.727	18.48
590.177	18.03
590.628	17.86
591.078	17.77
591.529	18.04
591.979	19.01
592.429	18.73
592.88	17.78
593.33	17.94
593.78	18.1
594.231	19.39
594.681	18.5
595.131	17.37
595.581	17.97
596.031	19
596.481	18.2
596.932	18.63
597.382	18.07
597.832	18.27
598.282	18.6
598.732	19.28
599.182	16.57
599.632	18.16
600.081	18.22
600.531	18.49
600.981	18.27
601.431	17.97
601.881	18.46
602.33	18.6
602.78	18.55
603.23	18.32
603.679	18.01
604.129	18.45
604.579	17.95
605.028	17.82
605.478	18.6
605.927	18.49
606.377	18.81
606.826	17.72
607.276	18.93
607.725	18.5
608.175	19.72
608.624	18.63
609.073	17.6
609.522	19.05
609.972	18.07
610.421	18.35
610.87	17.34
611.319	18.71
611.768	18.34
612.218	18.14
612.667	19.06
613.116	18.68
613.565	18.13
614.014	18.68
614.463	18.73
614.912	18.3
615.361	18.61
615.81	18
616.258	18.42
616.707	18.01
617.156	17.75
617.605	18.72
618.054	17.47
618.502	18.01
618.951	18
619.4	18.72
619.848	17.54
620.297	18.2
620.745	18.04
621.194	18.5
621.642	18.72
622.091	17.21
622.539	18.72
622.988	18.94
623.436	17.8
623.885	17.47
624.333	19.09
624.781	17.98
625.23	18.67
625.678	18.02
626.126	18.24
626.574	17.4
627.022	18.65
627.471	17.43
627.919	18.56
628.367	18.61
628.815	17.81
629.263	18.68
629.711	17.99
630.159	18.1
630.607	18.16
631.055	17.84
631.503	18.36
631.95	18.22
632.398	18.72
632.846	18.05
633.294	18.37
633.742	18.23
634.189	17.45
634.637	18.13
635.085	18.4
635.532	18.28
635.98	17.97
636.427	18.71
636.875	18.12
637.323	18.06
637.77	17.89
638.217	18.2
638.665	17.55
639.112	17.96
639.56	17.92
640.007	18.2
640.454	17.19
640.902	18.24
641.349	18.32
641.796	18.97
642.243	17.91
642.69	18.17
643.138	18.76
643.585	19.31
644.032	18.89
644.479	16.83
644.926	18.34
645.373	18.19
645.82	18.02
646.267	18.31
646.714	18.29
647.161	17.81
647.607	17.86
648.054	18.08
648.501	17.96
648.948	18.44
649.395	18.08
649.841	17.93
650.288	18.19
650.735	18.42
651.181	17.85
651.628	18.58
652.075	17.16
652.521	18.74
652.968	18.41
653.414	17.95
653.861	18.74
654.307	17.74
654.753	17.77
655.2	18.44
655.646	18.16
656.092	18.44
656.539	18.27
656.985	18.59
657.431	18.1
657.877	18.19
658.324	18.3
658.77	18.65
659.216	18.38
659.662	18.12
660.108	17.89
660.554	17.75
661	18.17
661.446	18.56
661.892	17.84
662.338	18.26
662.784	17.92
663.23	18.77
663.675	18.47
664.121	18.07
664.567	18.34
665.013	17.84
665.458	18.16
665.904	18.33
666.35	18.38
666.795	17.96
667.241	18.86
667.687	17.49
668.132	18.01
668.578	17.92
669.023	18.29
669.469	18.35
669.914	17.88
670.359	17.78
670.805	18.5
671.25	18.07
671.695	17.97
672.141	18.3
672.586	18.21
673.031	17.63
673.476	17.76
673.922	18.17
674.367	18.13
674.812	18.24
675.257	18.39
675.702	17.96
676.147	18.22
676.592	17.68
677.037	18.08
677.482	17.83
677.927	18.04
678.372	18.6
678.817	17.76
679.261	17.78
679.706	17.75
680.151	17.59
680.596	18.07
681.04	17.66
681.485	18.06
681.93	18.1
682.374	17.71
682.819	17.5
683.264	17.77
683.708	18.16
684.153	18.59
684.597	17.78
685.042	17.59
685.486	17.57
685.93	18.08
686.375	17.78
686.819	18.13
687.263	18.23
687.708	18.45
688.152	18.49
688.596	18.29
689.04	17.31
689.485	18.21
689.929	17.85
690.373	17.6
690.817	18.52
691.261	17.6
691.705	17.69
692.149	18.14
692.593	17.94
693.037	17.64
693.481	17.95
693.925	18.06
694.369	17.93
694.812	17.78
695.256	18
695.7	18.09
696.144	18.48
696.587	17.61
697.031	18.43
697.475	17.83
697.918	17.78
698.362	18.73
698.806	18.11
699.249	18.02
699.693	18.14
700.136	18.16
700.58	18.62
701.023	17.92
701.466	17.37
701.91	18.31
702.353	18.31
702.796	17.99
703.24	18.65
703.683	18.81
704.126	17.96
704.569	18.46
705.013	17.62
705.456	18.42
705.899	17.93
706.342	18.2
706.785	18.21
707.228	17.82
707.671	18.04
708.114	17.93
708.557	18.1
709	17.63
709.443	18.14
709.886	18.02
710.328	17.8
710.771	18.27
711.214	18.09
711.657	17.79
712.099	17.93
712.542	18.21
712.985	18.31
713.427	17.94
713.87	18.85
714.313	18.58
714.755	18.08
715.198	18.53
715.64	18.09
716.083	18.39
716.525	17.49
716.967	17.76
717.41	17.93
717.852	18.46
718.295	17.51
718.737	17.65
719.179	17.91
719.621	18.07
720.063	18.19
720.506	18.07
720.948	18.63
721.39	18.27
721.832	17.84
722.274	18.85
722.716	18.55
723.158	18.24
723.6	17.98
724.042	18.14
724.484	17.32
724.926	18.29
725.368	17.43
725.81	17.6
726.251	18.07
726.693	18.12
727.135	18.01
727.577	17.67
728.018	18.11
728.46	18.15
728.902	18.2
729.343	18.51
729.785	18.51
730.226	18.16
730.668	17.53
731.109	17.84
731.551	17.9
731.992	18.13
732.434	17.91
732.875	17.94
733.316	17.83
733.758	17.53
734.199	18.22
734.64	18.25
735.081	18.3
735.523	18.01
735.964	17.92
736.405	17.71
736.846	17.86
737.287	17.93
737.728	18.07
738.169	18.16
738.61	18.3
739.051	17.79
739.492	18.29
739.933	18.17
740.374	17.92
740.815	18.07
741.256	18.67
741.696	18.32
742.137	17.64
742.578	18.52
743.019	17.31
743.459	17.87
743.9	17.7
744.341	17.9
744.781	17.08
745.222	17.97
745.662	18.41
746.103	17.84
746.543	17.86
746.984	18.16
747.424	17.43
747.865	18.19
748.305	17.97
748.745	17.37
749.186	17.93
749.626	17.93
750.066	18.12
750.506	18.37
750.947	17.59
751.387	17.65
751.827	18.17
752.267	17.71
752.707	17.88
753.147	17.96
753.587	18.04
754.027	17.7
754.467	18.02
754.907	17.99
755.347	17.75
755.787	17.73
756.227	18.28
756.667	18.28
757.107	17.69
757.546	18.36
757.986	17.52
758.426	18.29
758.865	18.63
759.305	17.88
759.745	17.79
760.184	18.08
760.624	17.73
761.063	18.39
761.503	18.17
761.943	18.3
762.382	17.77
762.821	18.12
763.261	17.92
763.7	18.31
764.14	17.67
764.579	17.31
765.018	18.66
765.457	18.2
765.897	18.21
766.336	18.15
766.775	18.61
767.214	17.99
767.653	18.23
768.092	17.89
768.531	18.11
768.97	17.67
769.409	17.86
769.848	18.41
770.287	17.94
770.726	17.68
771.165	17.91
771.604	17.99
772.043	17.84
772.482	18.59
772.92	17.99
773.359	18.07
773.798	18.33
774.237	18.16
774.675	17.71
775.114	17.82
775.553	18.29
775.991	18.01
776.43	18.65
776.868	18.32
777.307	17.9
777.745	18.4
778.184	17.93
778.622	18
779.06	17.75
779.499	18.36
779.937	18.06
780.375	18.21
780.814	18.49
781.252	18.55
781.69	18.3
782.128	18.18
782.566	18.07
783.004	18
783.443	18.03
783.881	18.36
784.319	17.99
784.757	18.3
785.195	17.93
785.633	18.65
786.071	18.04
786.508	18.32
786.946	18.18
787.384	17.98
787.822	18.03
788.26	18.77
788.697	17.9
789.135	18.04
789.573	18.36
790.011	18.5
790.448	18.44
790.886	17.94
791.323	18.42
791.761	18.24
792.198	18.01
792.636	18.13
793.073	18.06
793.511	17.94
793.948	18.49
794.386	18.32
794.823	18.47
795.26	18.5
795.698	18.06
796.135	18.64
796.572	18.41
797.009	18.12
797.446	18.24
797.884	18.75
798.321	17.68
798.758	18.38
799.195	18.17
799.632	18.59
800.069	18.28
800.506	18.6
800.943	18.6
801.38	17.95
801.817	18.81
802.254	18.65
802.69	18.19
803.127	18.39
803.564	18.78
804.001	18.42
804.438	18.63
804.874	18.29
805.311	18.47
805.748	18.54
806.184	18.2
806.621	18.49
807.057	17.95
807.494	18.51
807.93	18.18
808.367	18.75
808.803	18.15
809.24	18.29
809.676	18.43
810.112	18.36
810.549	18.46
810.985	18.46
811.421	18.39
811.857	18.27
812.294	18.28
812.73	18.36
813.166	18.16
813.602	18.01
814.038	18.15
814.474	17.77
814.91	18.82
815.346	18.6
815.782	18.09
816.218	17.86
816.654	18.51
817.09	18.4
817.526	18.33
817.962	18.65
818.398	18.53
818.833	18.31
819.269	18.27
819.705	18.69
820.141	18.32
820.576	18.09
821.012	18.57
821.447	18.43
821.883	18.26
822.319	18.66
822.754	18.29
823.19	18.56
823.625	18.57
824.061	18.49
824.496	18.96
824.931	18.19
825.367	18.62
825.802	18.29
826.237	18.62
826.673	18.84
827.108	18.44
827.543	18.56
827.978	18.18
828.413	18.52
828.849	18.46
829.284	18.79
829.719	18.52
830.154	18.5
830.589	18.81
831.024	18.46
831.459	18.77
831.894	18.88
832.329	19.02
832.763	18.49
833.198	18.43
833.633	18.41
834.068	18.42
834.503	18.45
834.937	18.67
835.372	18.48
835.807	19.19
836.241	18.67
836.676	18.91
837.111	18.83
837.545	18.81
837.98	18.48
838.414	18.29
838.849	18.41
839.283	18.76
839.717	18.6
840.152	18.93
840.586	19.06
841.021	18.61
841.455	18.95
841.889	18.58
842.323	18.76
842.758	19.08
843.192	18.9
843.626	18.83
844.06	18.72
844.494	18.64
844.928	18.43
845.362	18.63
845.796	19.07
846.23	18.81
846.664	19.08
847.098	18.72
847.532	18.77
847.966	18.95
848.4	18.63
848.834	18.69
849.267	18.62
849.701	18.99
850.135	19.19
850.569	18.68
851.002	19.43
851.436	19.07
851.87	19.02
852.303	18.7
852.737	19.02
853.17	19.15
853.604	19.08
854.037	18.91
854.471	18.86
854.904	19.07
855.337	18.94
855.771	18.76
856.204	18.77
856.637	18.74
857.071	18.88
857.504	18.81
857.937	19.13
858.37	19.05
858.804	19.23
859.237	19.09
859.67	19.16
860.103	18.54
860.536	19.16
860.969	19.09
861.402	19.08
861.835	18.74
862.268	18.97
862.701	18.98
863.134	19
863.566	18.92
863.999	19.13
864.432	19.61
864.865	18.49
865.298	19.22
865.73	19.48
866.163	18.8
866.596	18.99
867.028	19.52
867.461	19.22
867.893	19.38
868.326	18.95
868.758	19.03
869.191	19.09
869.623	18.68
870.056	19.2
870.488	19.04
870.92	19.31
871.353	18.95
871.785	19.15
872.217	19.18
872.65	19.34
873.082	18.92
873.514	19.23
873.946	19.2
874.378	18.71
874.81	19.25
875.243	19.28
875.675	19.14
876.107	19.47
876.539	19.01
876.971	19.22
877.403	19.29
877.834	19.27
878.266	19.21
878.698	19.52
879.13	19.27
879.562	19.07
879.994	19.19
880.425	19.33
880.857	19.53
881.289	19.06
881.72	19.32
882.152	19.25
882.584	18.96
883.015	19.5
883.447	19.28
883.878	19.43
884.31	19.39
884.741	19.64
885.173	19.81
885.604	19.48
886.035	19.61
886.467	19.63
886.898	19.53
887.329	19.51
887.76	19.4
888.192	19.45
888.623	19.75
889.054	19.46
889.485	19.49
889.916	19.14
890.347	19.56
890.778	19.91
891.209	19.53
891.64	19.52
892.071	19.74
892.502	19.86
892.933	19.64
893.364	19.58
893.795	19.85
894.226	19.48
894.657	19.72
895.087	19.4
895.518	19.76
895.949	19.79
896.38	19.54
896.81	20.16
897.241	19.59
897.671	19.71
898.102	19.8
898.533	19.41
898.963	19.94
899.394	19.93
899.824	20.24
900.254	19.81
900.685	20.03
901.115	19.65
901.546	20.04
901.976	20.21
902.406	20.17
902.836	19.76
903.267	19.98
903.697	20.16
904.127	19.95
904.557	19.77
904.987	20.23
905.417	19.99
905.847	20.06
906.277	19.89
906.707	19.91
907.137	20.38
907.567	20.03
907.997	20.29
908.427	20.01
908.857	20.13
909.287	20.19
909.717	20.31
910.146	20.41
910.576	20.37
911.006	20.06
911.436	20.06
911.865	20.15
912.295	20.11
912.724	20.22
913.154	20.2
913.584	20.15
914.013	20.71
914.443	20.03
914.872	19.72
915.302	20.22
915.731	20.15
916.16	20.27
916.59	20.3
917.019	20.44
917.448	20.04
917.878	20.48
918.307	20.56
918.736	20.49
919.165	20.39
919.594	20.39
920.023	20.34
920.452	20.01
920.882	20.23
921.311	20.5
921.74	20.64
922.169	20.43
922.597	20.35
923.026	20.17
923.455	20.37
923.884	20.55
924.313	20.72
924.742	20.23
925.171	20.47
925.599	20.77
926.028	20.51
926.457	20.56
926.885	20.65
927.314	20.77
927.743	20.69
928.171	20.74
928.6	20.75
929.028	20.53
929.457	20.63
929.885	20.72
930.314	20.81
930.742	20.37
931.17	20.58
931.599	20.93
932.027	20.51
932.455	20.8
932.884	20.66
933.312	20.89
933.74	20.67
934.168	21
934.596	20.92
935.025	20.74
935.453	21
935.881	21.3
936.309	21.51
936.737	20.83
937.165	21.11
937.593	21.09
938.021	22.06
938.449	21.15
938.876	21.22
939.304	20.99
939.732	21
940.16	21.21
940.588	21.04
941.015	20.48
941.443	21.22
941.871	20.76
942.298	21.31
942.726	21.04
943.154	20.9
943.581	21.34
944.009	20.84
944.436	20.9
944.864	21.01
945.291	21.34
945.718	21
946.146	21.07
946.573	20.49
947.001	20.86
947.428	21.42
947.855	21.16
948.282	20.45
948.71	21.07
949.137	21.25
949.564	21.08
949.991	21.06
950.418	20.88
950.845	21.09
951.272	21.42
951.699	21.13
952.126	21.07
952.553	21.29
952.98	20.77
953.407	21.2
953.834	20.96
954.261	20.77
954.688	21.39
955.114	21.15
955.541	21.69
955.968	21.34
956.395	20.94
956.821	21.58
957.248	21.69
957.674	21.28
958.101	21.54
958.528	21.62
958.954	21.31
959.381	21.06
959.807	21.59
960.234	21.5
960.66	21.31
961.086	21.62
961.513	21.27
961.939	21.49
962.365	21.44
962.792	21.32
963.218	21.64
963.644	21.82
964.07	21.57
964.496	21.7
964.923	21.68
965.349	21.94
965.775	21.67
966.201	21.84
966.627	21.96
967.053	21.75
967.479	21.9
967.905	21.81
968.331	21.62
968.756	22.24
969.182	21.73
969.608	21.93
970.034	21.79
970.46	21.49
970.885	21.58
971.311	21.84
971.737	22
972.162	21.87
972.588	21.99
973.014	21.98
973.439	21.92
973.865	21.73
974.29	21.97
974.716	22.03
975.141	22.16
975.567	21.91
975.992	21.95
976.417	21.94
976.843	21.97
977.268	22.16
977.693	22.21
978.119	22.11
978.544	21.86
978.969	22.17
979.394	22.21
979.819	22.13
980.244	22.18
980.669	22.26
981.095	21.93
981.52	22.27
981.945	22.45
982.369	21.97
982.794	22.4
983.219	22.51
983.644	22.12
984.069	22.61
984.494	22.17
984.919	22.37
985.343	22.16
985.768	22.74
986.193	22.49
986.618	22.64
987.042	22.61
987.467	22.46
987.891	22.41
988.316	22.39
988.741	22.52
989.165	22.64
989.59	22.68
990.014	22.35
990.438	22.72
990.863	22.77
991.287	22.56
991.712	22.79
992.136	22.77
992.56	22.58
992.984	22.51
993.409	22.8
993.833	22.76
994.257	22.9
994.681	22.87
995.105	22.78
995.529	22.89
995.953	22.85
996.377	22.93
996.801	22.78
997.225	23.1
997.649	22.67
998.073	23.19
998.497	23
998.921	23.02
999.345	22.65
999.769	22.79
1000.192	22.93
1000.616	22.91
1001.04	22.8
1001.464	23.38
1001.887	22.96
1002.311	22.96
1002.734	23.06
1003.158	22.92
1003.582	22.99
1004.005	22.85
1004.429	23.43
1004.852	23.28
1005.275	23.38
1005.699	23.08
1006.122	23.1
1006.546	23.34
1006.969	23.33
1007.392	23.45
1007.815	23.22
1008.239	23.42
1008.662	23.33
1009.085	23.36
1009.508	23.19
1009.931	23.23
1010.354	23.88
1010.778	23.43
1011.201	23.58
1011.624	23.78
1012.047	23.47
1012.469	23.51
1012.892	23.49
1013.315	23.3
1013.738	23.15
1014.161	23.52
1014.584	23.66
1015.007	23.77
1015.429	23.5
1015.852	23.37
1016.275	23.63
1016.697	23.66
1017.12	23.71
1017.543	23.6
1017.965	23.79
1018.388	23.96
1018.81	23.69
1019.233	23.6
1019.655	23.98
1020.078	23.93
1020.5	23.95
1020.922	23.8
1021.345	23.9
1021.767	24.05
1022.189	24.06
1022.612	24.43
1023.034	24.28
1023.456	24.08
1023.878	23.73
1024.301	23.82
1024.723	24.11
1025.145	24.2
1025.567	23.95
1025.989	24.49
1026.411	23.71
1026.833	24.2
1027.255	23.89
1027.677	24.35
1028.099	24.05
1028.52	24.56
1028.942	24.46
1029.364	24.53
1029.786	24.07
1030.208	24.52
1030.629	24.32
1031.051	24.58
1031.473	24.29
1031.894	24.46
1032.316	24.45
1032.738	24.74
1033.159	24.59
1033.581	24.57
1034.002	24.5
1034.424	24.88
1034.845	24.96
1035.267	24.19
1035.688	24.62
1036.109	24.49
1036.531	24.87
1036.952	24.37
1037.373	24.65
1037.794	24.74
1038.216	24.56
1038.637	24.86
1039.058	24.43
1039.479	24.7
1039.9	24.66
1040.321	24.55
1040.742	24.58
1041.163	25.08
1041.584	24.65
1042.005	24.57
1042.426	24.93
1042.847	25.21
1043.268	24.85
1043.689	24.69
1044.11	24.83
1044.53	25.12
1044.951	24.52
1045.372	25
1045.793	25.14
1046.213	25.35
1046.634	25.46
1047.055	24.9
1047.475	25.02
1047.896	24.7
1048.316	25.27
1048.737	25.52
1049.157	25.49
1049.578	25
1049.998	25.23
1050.419	25.29
1050.839	24.77
1051.259	25.07
1051.68	25.01
1052.1	25.57
1052.52	24.84
1052.94	24.67
1053.361	24.99
1053.781	24.88
1054.201	24.93
1054.621	25.5
1055.041	24.71
1055.461	24.67
1055.881	25
1056.301	25.78
1056.721	25.17
1057.141	25.71
1057.561	25.64
1057.981	25.83
1058.401	25.87
1058.82	25.23
1059.24	25.67
1059.66	25.24
1060.08	25.67
1060.499	25.15
1060.919	25.25
1061.339	26.36
1061.758	25.75
1062.178	25.72
1062.598	25.29
1063.017	26.38
1063.437	25.79
1063.856	25.44
1064.276	25.77
1064.695	25.78
1065.114	26.16
1065.534	25.85
1065.953	26.19
1066.372	25.7
1066.792	25.45
1067.211	25.83
1067.63	25.41
1068.049	26.03
1068.469	25.7
1068.888	25.77
1069.307	26.09
1069.726	26.59
1070.145	26.41
1070.564	25.77
1070.983	25.86
1071.402	26.38
1071.821	26.14
1072.24	25.8
1072.659	26.5
1073.078	25.69
1073.496	26.61
1073.915	26.6
1074.334	26.22
1074.753	26.08
1075.171	26.42
1075.59	26.74
1076.009	26.7
1076.427	26.73
1076.846	26.37
1077.265	26.47
1077.683	26.74
1078.102	26.2
1078.52	26.83
1078.939	26.59
1079.357	26.39
1079.776	26.68
1080.194	26.95
1080.612	26.29
1081.031	26.78
1081.449	25.91
1081.867	26.34
1082.285	26.65
1082.704	25.82
1083.122	26.56
1083.54	26.64
1083.958	26.76
1084.376	26.95
1084.794	26.45
1085.212	26.68
1085.63	26.02
1086.048	26.37
1086.466	27.12
1086.884	25.97
1087.302	27.29
1087.72	26.97
1088.138	26.66
1088.555	26.49
1088.973	27.36
1089.391	26.98
1089.809	26.97
1090.226	27.33
1090.644	26.43
1091.062	27.6
1091.479	26.16
1091.897	27.78
1092.314	26.34
1092.732	26.96
1093.15	27.24
1093.567	27.73
1093.984	26.62
1094.402	27.04
1094.819	27.84
1095.237	28.01
1095.654	28.9
1096.071	27.12
1096.488	27.56
1096.906	26.06
1097.323	27.49
1097.74	26.75
1098.157	26.45
1098.574	28.2
1098.991	27.08
1099.409	26.97
1099.826	27.31
1100.243	27.69
1100.66	27.46
1101.077	28.24
1101.494	27.07
1101.91	27.8
1102.327	26.26
1102.744	27.76
1103.161	26.28
1103.578	26.79
1103.994	27.38
1104.411	28.32
1104.828	27.42
1105.245	29.49
1105.661	28.21
1106.078	26.16
1106.494	28.83
1106.911	28.57
1107.328	27.87
1107.744	28.32
1108.161	28.87
1108.577	24.72
1108.993	29.02
1109.41	27.93
1109.826	27.74
1110.242	28.66
1110.659	27.91
1111.075	27.23
1111.491	28.34
1111.908	27.15
1112.324	28.46
1112.74	39.39
1113.156	27.1
1113.572	29.82
1113.988	30.74
1114.404	28.74
1114.82	27.4
1115.236	27.19
1115.652	29.05
1116.068	25.76
1116.484	28.45
1116.9	28.76
1117.316	26.5
1117.732	-33.33
1118.147	4.17
1118.563	-6.67
1118.979	233.33
