Data from JCR0035_White2_Reflection_00003.txt Node
Date: Fri Jul 31 15:48:02 ACST 2020
User: Stacey Dix
Spectrometer: MAYP113282
Scans to average: 1
Trigger mode: 0
Integration Time (sec): 1.000000E-1
Electric dark correction enabled: true
Boxcar width: 0
XAxis mode: Wavelengths
Number of Pixels in Spectrum: 2068
>>>>>Begin Spectral Data<<<<<
198.791	437.5
199.266	25
199.74	130
200.215	-425
200.69	2.55
201.164	34.43
201.639	-11.51
202.114	9.73
202.588	56.99
203.063	44.74
203.537	40.15
204.012	21.77
204.486	28.14
204.961	-5.35
205.435	8.78
205.909	32.09
206.384	-38.39
206.858	27.82
207.332	36.49
207.807	26.43
208.281	13.99
208.755	20.23
209.229	15.12
209.703	18.87
210.177	45.1
210.651	40.79
211.126	0.17
211.6	13.88
212.074	29.72
212.548	25
213.021	5.43
213.495	31.59
213.969	11
214.443	15.45
214.917	33.88
215.391	30.6
215.864	18.4
216.338	14.24
216.812	1.86
217.286	20.02
217.759	19.61
218.233	1.52
218.706	21.19
219.18	16.3
219.654	16.71
220.127	12.26
220.6	25.57
221.074	5.89
221.547	12.23
222.021	3.95
222.494	9.67
222.967	18.64
223.441	10.89
223.914	10.71
224.387	3.5
224.86	14.36
225.334	18.72
225.807	5.89
226.28	8.46
226.753	12.89
227.226	9.46
227.699	11.5
228.172	10.97
228.645	8.67
229.118	8.51
229.591	6.82
230.064	6.48
230.537	6.33
231.01	8.45
231.482	8.67
231.955	8.08
232.428	7.4
232.901	7.04
233.373	8.78
233.846	9.15
234.319	9.3
234.791	7.03
235.264	8.16
235.736	8.65
236.209	6.23
236.681	7.91
237.154	6.69
237.626	7.02
238.099	4.81
238.571	7.6
239.044	6.37
239.516	6.64
239.988	6.52
240.46	7.11
240.933	6.17
241.405	7.02
241.877	5.74
242.349	7.21
242.821	4.97
243.293	7.18
243.765	5.58
244.237	5.91
244.71	6.46
245.181	6.83
245.653	6.91
246.125	5.88
246.597	7.11
247.069	8.31
247.541	6.11
248.013	4.86
248.485	6.39
248.956	6.28
249.428	6.24
249.9	6.1
250.371	6.12
250.843	6.62
251.315	6.02
251.786	4.52
252.258	5.74
252.729	7.63
253.201	5.78
253.672	6.08
254.144	4.62
254.615	5.23
255.086	5.02
255.558	5.28
256.029	5.82
256.5	5.99
256.972	5.56
257.443	4.89
257.914	5.1
258.385	5.54
258.856	5.26
259.327	4.34
259.799	5.03
260.27	5.02
260.741	5.67
261.212	5.88
261.683	5.1
262.154	5.62
262.624	5.18
263.095	5.38
263.566	4.97
264.037	5.94
264.508	4.58
264.979	4.95
265.449	5.02
265.92	4.76
266.391	4.66
266.861	4.46
267.332	6.19
267.803	5.27
268.273	4.86
268.744	5.31
269.214	5.3
269.685	4.79
270.155	5.55
270.626	4.99
271.096	5.56
271.566	5.55
272.037	5.71
272.507	4.97
272.977	5.36
273.448	5.16
273.918	4.91
274.388	5.04
274.858	4.53
275.328	4.47
275.798	5.07
276.268	4.18
276.738	4.9
277.208	4.98
277.678	4.53
278.148	4.39
278.618	5.49
279.088	5.67
279.558	3.8
280.028	4.92
280.498	4.09
280.968	4.47
281.437	4.64
281.907	5.78
282.377	4.03
282.847	6.22
283.316	4.8
283.786	4.99
284.255	4.26
284.725	4.11
285.194	3.72
285.664	4.55
286.133	4.31
286.603	3.82
287.072	5.47
287.542	4.21
288.011	5.09
288.48	3.85
288.95	5.98
289.419	4.54
289.888	4.46
290.357	4.61
290.827	4.99
291.296	3.81
291.765	5.02
292.234	4.78
292.703	4.49
293.172	4.76
293.641	4.03
294.11	4.43
294.579	5.32
295.048	4.11
295.517	5.3
295.986	5.02
296.455	4.04
296.923	4.01
297.392	5.08
297.861	5.57
298.33	3.94
298.798	5.37
299.267	4.75
299.736	5.12
300.204	5.37
300.673	4.16
301.141	4.01
301.61	4.83
302.079	5.67
302.547	3.47
303.015	4.65
303.484	4.77
303.952	3.96
304.421	3.7
304.889	4.87
305.357	5.09
305.825	3.69
306.294	4.47
306.762	5.12
307.23	5.62
307.698	4
308.166	4.27
308.634	4.75
309.103	4.26
309.571	4.06
310.039	4.49
310.507	4.96
310.975	4.63
311.442	4.44
311.91	4.99
312.378	3.96
312.846	3.25
313.314	4.36
313.782	5.45
314.249	4.23
314.717	4.72
315.185	4.35
315.652	4.9
316.12	4.74
316.588	4.64
317.055	4.87
317.523	5.78
317.99	4.66
318.458	5.78
318.925	4.87
319.393	5.41
319.86	4.95
320.328	5.49
320.795	7.47
321.262	6.49
321.73	5.5
322.197	6.08
322.664	6.86
323.131	7.71
323.598	7.9
324.066	7.37
324.533	8.74
325	9.89
325.467	10.72
325.934	10.72
326.401	12.43
326.868	12.57
327.335	12.82
327.802	13.72
328.269	14.63
328.735	14.73
329.202	15.8
329.669	17.71
330.136	17.61
330.603	19.36
331.069	18.88
331.536	19.67
332.003	19.93
332.469	20.09
332.936	19.3
333.402	21.53
333.869	20.59
334.336	21.83
334.802	20.74
335.268	20.77
335.735	21.86
336.201	22.83
336.668	21.67
337.134	21.04
337.6	22.21
338.067	20.04
338.533	22.19
338.999	22.2
339.465	21.13
339.931	21.72
340.398	21.5
340.864	20.86
341.33	20.79
341.796	21.25
342.262	22.22
342.728	22.66
343.194	22.06
343.66	21.86
344.126	21.45
344.592	21.98
345.057	22.34
345.523	22.62
345.989	20.19
346.455	21.28
346.921	22.31
347.386	20.85
347.852	20.3
348.318	21.95
348.783	20.23
349.249	22.97
349.714	21.17
350.18	22.26
350.645	20.43
351.111	22.55
351.576	21.36
352.042	21.56
352.507	20.84
352.973	21.05
353.438	20.03
353.903	23.26
354.369	21.29
354.834	20.38
355.299	21.3
355.764	22.69
356.229	22.03
356.695	22.09
357.16	22.08
357.625	21.87
358.09	23.15
358.555	23.07
359.02	20.82
359.485	20.77
359.95	23.28
360.415	22.76
360.879	22.95
361.344	22.19
361.809	20.25
362.274	23.07
362.739	22.25
363.203	22.12
363.668	21.41
364.133	23.34
364.597	22.49
365.062	21.94
365.527	22.05
365.991	20.99
366.456	23.59
366.92	21.97
367.385	23.3
367.849	22.36
368.314	24.24
368.778	22.87
369.242	21.53
369.707	22.99
370.171	23.01
370.635	23.35
371.1	21.7
371.564	23.85
372.028	23.67
372.492	22.92
372.956	23.7
373.42	23.74
373.884	22.63
374.348	23.45
374.812	22.57
375.276	25.04
375.74	22.02
376.204	23.53
376.668	24.04
377.132	24.7
377.596	23.86
378.06	21.75
378.524	22.39
378.987	23.18
379.451	23
379.915	23.34
380.378	22.78
380.842	23.85
381.306	23.24
381.769	25.44
382.233	23.94
382.696	23.68
383.16	23.71
383.623	24
384.087	23.13
384.55	22.68
385.014	22.78
385.477	24.39
385.94	22.22
386.404	26.12
386.867	23.18
387.33	23.73
387.793	24.39
388.256	24.96
388.72	22.9
389.183	25.82
389.646	24.68
390.109	25.23
390.572	23.73
391.035	23.34
391.498	23.52
391.961	22.85
392.424	23.52
392.887	26.44
393.35	25.39
393.812	24.99
394.275	24.23
394.738	25.23
395.201	25.39
395.664	24.37
396.126	25.45
396.589	24.59
397.052	23.98
397.514	24.86
397.977	25.76
398.439	24.23
398.902	24.23
399.364	26.55
399.827	25.29
400.289	26.33
400.752	25.87
401.214	24.64
401.676	25.67
402.139	25.87
402.601	24.01
403.063	25.67
403.525	24.14
403.988	25.35
404.45	24.72
404.912	24.38
405.374	25.23
405.836	24.91
406.298	24.28
406.76	24.61
407.222	24.41
407.684	25.38
408.146	24.65
408.608	23.75
409.07	25.37
409.532	24.98
409.994	24.88
410.456	25.25
410.917	24.6
411.379	23.93
411.841	25.93
412.303	24.17
412.764	24.95
413.226	24.78
413.687	24.3
414.149	24.91
414.611	24.94
415.072	25.39
415.534	26.81
415.995	25.03
416.457	24.8
416.918	24.56
417.379	25.46
417.841	26.46
418.302	26.84
418.763	25.83
419.225	24.49
419.686	26.89
420.147	26.44
420.608	25.54
421.069	26.56
421.53	26.63
421.991	24.06
422.453	24.88
422.914	25.65
423.375	26.45
423.836	25.42
424.297	25.23
424.757	26.67
425.218	23.99
425.679	24.96
426.14	26.41
426.601	25.68
427.062	25.6
427.522	27.19
427.983	26.66
428.444	26.08
428.904	25.28
429.365	28.08
429.826	25.57
430.286	26.59
430.747	25.93
431.207	26.62
431.668	26.9
432.128	27.27
432.589	25.93
433.049	26.36
433.509	26.71
433.97	25.72
434.43	25.84
434.89	25.33
435.351	27.06
435.811	24.92
436.271	29.12
436.731	24.74
437.191	27.13
437.651	27.83
438.112	28.21
438.572	25.26
439.032	23.98
439.492	28.03
439.952	24.02
440.412	26.3
440.871	30.91
441.331	25.58
441.791	25.72
442.251	28.75
442.711	26.12
443.171	27.83
443.63	26.95
444.09	27.5
444.55	24.17
445.009	27.86
445.469	26.49
445.929	25.84
446.388	27.91
446.848	28.38
447.307	27.08
447.767	28.85
448.226	27.62
448.686	26.16
449.145	25.64
449.604	28.25
450.064	26.23
450.523	26.72
450.982	27.2
451.442	26.19
451.901	27.47
452.36	28.35
452.819	26.26
453.278	23.72
453.737	26.81
454.197	25.82
454.656	27.03
455.115	26.75
455.574	27.64
456.033	27.23
456.492	24.36
456.95	28.23
457.409	26.35
457.868	27.35
458.327	28.59
458.786	27.58
459.245	27.67
459.703	28.88
460.162	27.35
460.621	25.97
461.079	29.19
461.538	24.94
461.997	27.64
462.455	27.09
462.914	26.34
463.372	26.51
463.831	26.46
464.289	28.01
464.748	26.79
465.206	27.64
465.664	30.91
466.123	25.46
466.581	24.03
467.039	27.23
467.497	25.13
467.956	26.85
468.414	28.79
468.872	26.35
469.33	23.9
469.788	27.74
470.246	29.72
470.704	27.51
471.162	28.48
471.62	28.4
472.078	27.84
472.536	25.3
472.994	28.94
473.452	26.27
473.91	26.53
474.368	25.74
474.826	28.36
475.283	27.32
475.741	30.28
476.199	25.02
476.656	29.59
477.114	27.89
477.572	24.31
478.029	26.49
478.487	27.73
478.944	26.34
479.402	27.46
479.859	27.11
480.317	25.04
480.774	27.58
481.232	26.72
481.689	26.76
482.146	25.65
482.604	27.24
483.061	26.23
483.518	28.78
483.975	24.22
484.433	25.37
484.89	25.59
485.347	26.7
485.804	25.96
486.261	25.8
486.718	25.7
487.175	26.18
487.632	28.29
488.089	29.52
488.546	28.96
489.003	26.25
489.46	25.97
489.917	24.82
490.373	27.43
490.83	27.78
491.287	28.01
491.744	27.14
492.2	25.91
492.657	24.98
493.114	28.24
493.57	25.19
494.027	29.05
494.484	25.52
494.94	25.07
495.397	29.02
495.853	26.86
496.31	28.02
496.766	24.72
497.222	26.26
497.679	26.57
498.135	27.43
498.591	28.03
499.048	26.06
499.504	27.23
499.96	25.58
500.416	26.99
500.872	29.08
501.329	24.52
501.785	27.23
502.241	26.06
502.697	24.96
503.153	24.91
503.609	26.33
504.065	26.26
504.521	27.31
504.977	28.13
505.432	25.38
505.888	28.39
506.344	26.01
506.8	26.74
507.256	23.93
507.711	25.81
508.167	24.29
508.623	28.78
509.078	26.55
509.534	28.89
509.99	26.17
510.445	26.54
510.901	25.57
511.356	27.34
511.812	26.97
512.267	25.98
512.722	25.49
513.178	26.51
513.633	26.35
514.089	26.96
514.544	27.91
514.999	25.13
515.454	26.12
515.91	26.32
516.365	26.05
516.82	25.91
517.275	27.24
517.73	26.75
518.185	25.38
518.64	26.85
519.095	25.73
519.55	27.14
520.005	27.72
520.46	24.24
520.915	27.35
521.37	25.84
521.825	26.26
522.28	26
522.734	24.57
523.189	27.51
523.644	25.69
524.099	27.17
524.553	27.92
525.008	27.46
525.462	27.69
525.917	26.05
526.372	26.91
526.826	26.91
527.281	26.95
527.735	26.1
528.19	25.46
528.644	28.5
529.098	25.45
529.553	24.51
530.007	26.27
530.461	29.04
530.916	27.73
531.37	24.76
531.824	26.01
532.278	24.43
532.732	27.35
533.186	25.4
533.641	25.71
534.095	26.83
534.549	29.07
535.003	26.54
535.457	27.4
535.911	28.4
536.365	25.64
536.818	26.6
537.272	28.66
537.726	24.95
538.18	24.54
538.634	28.64
539.087	26.73
539.541	26.33
539.995	23.43
540.449	28.37
540.902	26.33
541.356	26.96
541.809	27.19
542.263	28.61
542.716	26.62
543.17	27.98
543.623	27.85
544.077	25.17
544.53	26.45
544.984	29.63
545.437	27.2
545.89	27.89
546.344	25.49
546.797	27.41
547.25	26.91
547.703	28.31
548.157	26.03
548.61	25.94
549.063	27.32
549.516	25.8
549.969	25.49
550.422	26.84
550.875	26.64
551.328	26.65
551.781	27.98
552.234	26.78
552.687	27.39
553.14	25.37
553.592	27.41
554.045	28.45
554.498	26.35
554.951	26.94
555.404	25.8
555.856	26.47
556.309	27.4
556.762	26.82
557.214	32.32
557.667	27.29
558.119	26.14
558.572	25.85
559.024	27.44
559.477	28.12
559.929	25.46
560.382	26.35
560.834	27.55
561.286	27.98
561.739	27.15
562.191	28.18
562.643	28.43
563.095	27.18
563.548	23.96
564	28.39
564.452	27.69
564.904	29.48
565.356	27.73
565.808	29.56
566.26	27.82
566.712	28.85
567.164	27.71
567.616	28.29
568.068	29.62
568.52	27.77
568.972	28.3
569.424	27.46
569.876	28.43
570.327	27.78
570.779	27.67
571.231	27.72
571.682	27.73
572.134	28.15
572.586	28.61
573.037	27.1
573.489	28.21
573.941	27.57
574.392	27.98
574.844	26.56
575.295	27.93
575.746	27.06
576.198	27.15
576.649	28.92
577.101	27.96
577.552	26.09
578.003	28.07
578.454	28.86
578.906	27.36
579.357	27.62
579.808	27.78
580.259	27.74
580.71	27.28
581.161	26.63
581.612	27.94
582.064	27.21
582.515	27.51
582.965	29.62
583.416	27.69
583.867	27.37
584.318	27.37
584.769	26.46
585.22	27.62
585.671	28.82
586.122	27.8
586.572	26.99
587.023	28.66
587.474	28.74
587.924	28.55
588.375	27.51
588.826	28.01
589.276	28.68
589.727	28.18
590.177	29.23
590.628	28.05
591.078	29.74
591.529	28.07
591.979	26.83
592.429	27.55
592.88	27.44
593.33	28.33
593.78	28.51
594.231	29.11
594.681	28.69
595.131	27.72
595.581	27.69
596.031	28.32
596.481	29.58
596.932	28.59
597.382	26.89
597.832	28.75
598.282	27.52
598.732	29.68
599.182	27.03
599.632	28.05
600.081	25.99
600.531	28.27
600.981	27.36
601.431	27.29
601.881	28.33
602.33	26.35
602.78	27.46
603.23	27.74
603.679	27.7
604.129	27.77
604.579	28.91
605.028	27.5
605.478	26.54
605.927	29.86
606.377	27.89
606.826	27.55
607.276	29.42
607.725	27.31
608.175	27.57
608.624	27.85
609.073	27.57
609.522	26.85
609.972	27.91
610.421	27.89
610.87	28.83
611.319	26.44
611.768	27.87
612.218	27.36
612.667	27.76
613.116	27.85
613.565	28.51
614.014	27.26
614.463	27.81
614.912	28.23
615.361	27.03
615.81	27.13
616.258	28.96
616.707	28.35
617.156	27.59
617.605	28.02
618.054	27.94
618.502	27.5
618.951	29.02
619.4	28.29
619.848	28.23
620.297	27.97
620.745	27.37
621.194	28.32
621.642	26.42
622.091	27.98
622.539	27.88
622.988	28.05
623.436	29.12
623.885	28.71
624.333	28.89
624.781	27.41
625.23	28.79
625.678	26.93
626.126	27.96
626.574	28.38
627.022	28.31
627.471	27.68
627.919	28.94
628.367	28.23
628.815	27.31
629.263	28.42
629.711	27.78
630.159	28.44
630.607	27.39
631.055	28.52
631.503	27.57
631.95	27.69
632.398	27.42
632.846	27.82
633.294	27.09
633.742	28.17
634.189	27.61
634.637	28.07
635.085	28.11
635.532	28.11
635.98	28.96
636.427	26.99
636.875	28.21
637.323	27.82
637.77	27.17
638.217	26.97
638.665	28.53
639.112	27.95
639.56	28.16
640.007	28.88
640.454	29.05
640.902	27.45
641.349	28.79
641.796	29.09
642.243	27.95
642.69	27.43
643.138	28.5
643.585	27.36
644.032	27.77
644.479	28.45
644.926	27.43
645.373	28.94
645.82	27.27
646.267	28.93
646.714	28.02
647.161	27.92
647.607	27.18
648.054	28.12
648.501	28.97
648.948	28.36
649.395	28.78
649.841	28.14
650.288	29.15
650.735	27.6
651.181	28
651.628	28.72
652.075	29.06
652.521	28
652.968	27.99
653.414	28.17
653.861	28.68
654.307	27.41
654.753	27.12
655.2	27.55
655.646	26.99
656.092	27.64
656.539	26.77
656.985	27.82
657.431	28.22
657.877	27.75
658.324	28.77
658.77	28.83
659.216	28.56
659.662	27.32
660.108	28.8
660.554	27.13
661	27.62
661.446	27.89
661.892	27.85
662.338	28.12
662.784	28.29
663.23	27.25
663.675	27.28
664.121	27.76
664.567	28.05
665.013	28.29
665.458	28.97
665.904	27.83
666.35	28.05
666.795	27.92
667.241	27.6
667.687	27.54
668.132	28.19
668.578	28.13
669.023	28.35
669.469	28.45
669.914	27.87
670.359	29.08
670.805	28.04
671.25	28.38
671.695	28.2
672.141	27.69
672.586	29.27
673.031	29.29
673.476	28.21
673.922	27.95
674.367	28.34
674.812	27.45
675.257	27.52
675.702	27.6
676.147	27.98
676.592	28.28
677.037	27.69
677.482	28.93
677.927	28.79
678.372	27.8
678.817	27.98
679.261	28.42
679.706	28.98
680.151	27.09
680.596	27.9
681.04	28.62
681.485	28.25
681.93	27.42
682.374	28.24
682.819	27.63
683.264	28.21
683.708	28.84
684.153	28.01
684.597	29.2
685.042	28.88
685.486	27.84
685.93	27.06
686.375	28.84
686.819	28.62
687.263	29
687.708	27.69
688.152	28.67
688.596	28.37
689.04	28.03
689.485	29.14
689.929	28.78
690.373	27.34
690.817	27.51
691.261	28.83
691.705	27.37
692.149	28.32
692.593	28.12
693.037	27.22
693.481	28.27
693.925	29.35
694.369	29.12
694.812	28
695.256	28.97
695.7	28.08
696.144	28.41
696.587	28.22
697.031	28.33
697.475	28.9
697.918	28.03
698.362	27.83
698.806	28.18
699.249	28.05
699.693	28.69
700.136	28.25
700.58	27.93
701.023	28.87
701.466	29.11
701.91	28.48
702.353	29.61
702.796	28.12
703.24	27.38
703.683	28.03
704.126	29.03
704.569	27.59
705.013	28.7
705.456	28.56
705.899	28.09
706.342	28.34
706.785	28.19
707.228	28.96
707.671	27.59
708.114	28.66
708.557	28.23
709	29.01
709.443	29.12
709.886	28.39
710.328	28.51
710.771	27.95
711.214	29.23
711.657	28.6
712.099	28.6
712.542	28.47
712.985	28.52
713.427	28.49
713.87	28.75
714.313	28.29
714.755	28.57
715.198	28.53
715.64	28.39
716.083	28.59
716.525	28.07
716.967	28.95
717.41	28.88
717.852	28.97
718.295	29.09
718.737	29.61
719.179	28.59
719.621	29.08
720.063	28.79
720.506	28.9
720.948	28.7
721.39	27.75
721.832	27.56
722.274	28
722.716	28.61
723.158	28.13
723.6	28.21
724.042	28.62
724.484	28.77
724.926	28.78
725.368	28.53
725.81	27.97
726.251	29.7
726.693	28.06
727.135	28.25
727.577	28.43
728.018	28.59
728.46	28.9
728.902	29.3
729.343	28.65
729.785	28.97
730.226	28.45
730.668	29.24
731.109	28.06
731.551	28.97
731.992	28.54
732.434	28.58
732.875	29.18
733.316	28.45
733.758	28.83
734.199	27.91
734.64	29.34
735.081	27.92
735.523	29.63
735.964	28.35
736.405	28.31
736.846	28.61
737.287	28.55
737.728	28.87
738.169	28.96
738.61	28.55
739.051	28.04
739.492	28.03
739.933	27.92
740.374	28.51
740.815	29.21
741.256	28.55
741.696	28.3
742.137	28.44
742.578	28.44
743.019	28.66
743.459	28.81
743.9	29.24
744.341	28.57
744.781	28.87
745.222	29.09
745.662	28.71
746.103	29.78
746.543	28.31
746.984	29.77
747.424	29.28
747.865	29.82
748.305	28.28
748.745	28.83
749.186	28.98
749.626	29.22
750.066	28.85
750.506	29.33
750.947	27.7
751.387	28.6
751.827	29.72
752.267	28.26
752.707	29.1
753.147	29.16
753.587	28.82
754.027	29.21
754.467	28.98
754.907	28.31
755.347	29.02
755.787	28.72
756.227	29.83
756.667	28.06
757.107	28.93
757.546	28.3
757.986	29.56
758.426	28.5
758.865	28.92
759.305	28.37
759.745	29.36
760.184	29.11
760.624	29.92
761.063	28.96
761.503	28.9
761.943	28.92
762.382	29.81
762.821	28.67
763.261	28.99
763.7	30.15
764.14	28.65
764.579	29.76
765.018	28.58
765.457	29.39
765.897	28.93
766.336	30.71
766.775	28.41
767.214	28.56
767.653	28.97
768.092	29.37
768.531	28.95
768.97	29.38
769.409	29.41
769.848	28.71
770.287	29.55
770.726	29.46
771.165	28.93
771.604	29.29
772.043	29.85
772.482	28.99
772.92	29.14
773.359	29.38
773.798	29.72
774.237	29.14
774.675	28.68
775.114	29.77
775.553	28.61
775.991	29.24
776.43	29.02
776.868	29.57
777.307	30.01
777.745	29.66
778.184	29.58
778.622	29.5
779.06	29.32
779.499	29.27
779.937	29.48
780.375	29.49
780.814	29.93
781.252	30.17
781.69	29.81
782.128	29.06
782.566	28.8
783.004	30.19
783.443	29.17
783.881	28.99
784.319	29.31
784.757	29.76
785.195	29.37
785.633	29.52
786.071	29.47
786.508	29.74
786.946	30.11
787.384	30.29
787.822	30.06
788.26	29.34
788.697	29.57
789.135	29.56
789.573	29.33
790.011	29.84
790.448	29.03
790.886	29.23
791.323	29.74
791.761	29.98
792.198	30.21
792.636	29.47
793.073	29.61
793.511	29.62
793.948	30.35
794.386	29.38
794.823	29.64
795.26	30.05
795.698	29.78
796.135	30.79
796.572	29.58
797.009	29.98
797.446	29.96
797.884	30.44
798.321	29.78
798.758	29.82
799.195	30.79
799.632	30.22
800.069	30.17
800.506	30.12
800.943	30.12
801.38	29.56
801.817	29.99
802.254	29.79
802.69	30.3
803.127	29.71
803.564	30.48
804.001	30.02
804.438	30.02
804.874	30.01
805.311	30.53
805.748	30
806.184	30.73
806.621	29.79
807.057	30.71
807.494	30.87
807.93	30.52
808.367	30.72
808.803	30.23
809.24	29.91
809.676	30.05
810.112	29.9
810.549	30.3
810.985	30.37
811.421	30.77
811.857	30.34
812.294	30.08
812.73	30.42
813.166	30.4
813.602	30.85
814.038	30.63
814.474	30.09
814.91	30.14
815.346	30.5
815.782	30.59
816.218	30.59
816.654	30.04
817.09	30.84
817.526	30.51
817.962	30.55
818.398	30.51
818.833	30.96
819.269	30.46
819.705	30.56
820.141	30.23
820.576	30.95
821.012	30.62
821.447	31.41
821.883	30.4
822.319	30.71
822.754	31.02
823.19	30.77
823.625	30.81
824.061	30.14
824.496	30.52
824.931	30.61
825.367	30.09
825.802	30.64
826.237	30.65
826.673	30.53
827.108	31.14
827.543	30.69
827.978	30.31
828.413	31.15
828.849	30.96
829.284	30.62
829.719	30.58
830.154	31.19
830.589	31.1
831.024	31.63
831.459	31.1
831.894	31.56
832.329	30.46
832.763	31.44
833.198	31.17
833.633	30.68
834.068	31.1
834.503	31.27
834.937	30.86
835.372	31.05
835.807	31.21
836.241	31.33
836.676	30.71
837.111	31.34
837.545	31.45
837.98	31.41
838.414	30.76
838.849	31.59
839.283	31.27
839.717	31.9
840.152	31.21
840.586	31.05
841.021	31.69
841.455	30.92
841.889	30.84
842.323	31.59
842.758	31.32
843.192	31.79
843.626	31.44
844.06	31.67
844.494	31.56
844.928	30.86
845.362	30.91
845.796	31.18
846.23	31
846.664	31.3
847.098	31.53
847.532	31.14
847.966	31.15
848.4	31.19
848.834	31.68
849.267	31.4
849.701	31.35
850.135	31.24
850.569	31.53
851.002	31.45
851.436	32.09
851.87	31.32
852.303	30.73
852.737	31.74
853.17	31.76
853.604	31.03
854.037	31.88
854.471	31.51
854.904	31.52
855.337	32.32
855.771	31.68
856.204	30.97
856.637	31.11
857.071	31.71
857.504	31.69
857.937	31.84
858.37	31.72
858.804	31.21
859.237	31.99
859.67	31.7
860.103	31.52
860.536	31.48
860.969	32.52
861.402	31.78
861.835	31.79
862.268	32.45
862.701	32.49
863.134	31.8
863.566	32.47
863.999	32.26
864.432	32.36
864.865	32.26
865.298	31.67
865.73	32.2
866.163	31.91
866.596	32.29
867.028	31.86
867.461	32.84
867.893	32.25
868.326	32.21
868.758	31.77
869.191	32.68
869.623	31.86
870.056	32.88
870.488	32.14
870.92	32.95
871.353	32.28
871.785	32.25
872.217	32.32
872.65	32.66
873.082	32.25
873.514	31.88
873.946	32.39
874.378	32.92
874.81	32.24
875.243	32.29
875.675	32.27
876.107	32.65
876.539	31.93
876.971	31.92
877.403	32.17
877.834	32.37
878.266	31.99
878.698	33.19
879.13	32.51
879.562	32.13
879.994	32.9
880.425	32.26
880.857	32.6
881.289	32.67
881.72	32.48
882.152	32.01
882.584	32.78
883.015	32.75
883.447	32.87
883.878	33.03
884.31	32.92
884.741	32.62
885.173	33.24
885.604	32.63
886.035	32.93
886.467	32.94
886.898	33
887.329	33.79
887.76	32.87
888.192	32.8
888.623	32.68
889.054	32.76
889.485	32.89
889.916	33.02
890.347	32.41
890.778	33.07
891.209	33.1
891.64	32.86
892.071	33
892.502	33.54
892.933	33.21
893.364	33.39
893.795	33.1
894.226	33.35
894.657	33.52
895.087	33.4
895.518	32.77
895.949	33.36
896.38	33.2
896.81	33.45
897.241	32.78
897.671	33.35
898.102	33.15
898.533	33.13
898.963	33.36
899.394	33.13
899.824	33.55
900.254	32.85
900.685	33.32
901.115	33.28
901.546	33.54
901.976	33.98
902.406	33.86
902.836	33.35
903.267	33.84
903.697	33.74
904.127	33.77
904.557	33.64
904.987	33.7
905.417	33.75
905.847	33.6
906.277	33.73
906.707	33.63
907.137	33.58
907.567	33.14
907.997	33.41
908.427	33.68
908.857	34.19
909.287	33.63
909.717	33.9
910.146	33.31
910.576	33.82
911.006	33.96
911.436	34.18
911.865	34.08
912.295	34.02
912.724	33.97
913.154	33.62
913.584	33.92
914.013	33.94
914.443	33.79
914.872	33.12
915.302	33.71
915.731	33.85
916.16	33.53
916.59	33.95
917.019	33.98
917.448	34.41
917.878	33.79
918.307	33.88
918.736	33.43
919.165	33.93
919.594	33.62
920.023	34.29
920.452	33.67
920.882	33.96
921.311	33.92
921.74	34.05
922.169	34.24
922.597	34.19
923.026	34.71
923.455	34.45
923.884	34.29
924.313	34.03
924.742	33.75
925.171	34.26
925.599	34.18
926.028	34.49
926.457	34.31
926.885	33.82
927.314	34.35
927.743	34.4
928.171	34.28
928.6	34.85
929.028	34.39
929.457	33.56
929.885	34.58
930.314	34.82
930.742	34.33
931.17	34.67
931.599	34.64
932.027	35.15
932.455	34.68
932.884	34.34
933.312	34.37
933.74	34.98
934.168	34.84
934.596	34.62
935.025	34.95
935.453	34.78
935.881	34.8
936.309	34.43
936.737	34.48
937.165	34.42
937.593	35.26
938.021	34.87
938.449	35.17
938.876	34.97
939.304	34.97
939.732	34.39
940.16	35.25
940.588	35.81
941.015	34.74
941.443	34.87
941.871	34.59
942.298	34.88
942.726	35.9
943.154	34.85
943.581	34.7
944.009	34.43
944.436	35.3
944.864	35.19
945.291	34.76
945.718	34.27
946.146	35.41
946.573	34.06
947.001	34.76
947.428	34.26
947.855	34.67
948.282	35.79
948.71	35.09
949.137	35.38
949.564	35.33
949.991	34.81
950.418	35.5
950.845	34.93
951.272	35.2
951.699	34.92
952.126	35.83
952.553	34.98
952.98	35.03
953.407	34.61
953.834	35.11
954.261	34.77
954.688	35.27
955.114	35.27
955.541	35.21
955.968	35.24
956.395	35.36
956.821	34.46
957.248	34.8
957.674	34.7
958.101	35.28
958.528	35.08
958.954	34.72
959.381	35.31
959.807	35.16
960.234	35.24
960.66	35.41
961.086	35.58
961.513	35.4
961.939	35.13
962.365	34.79
962.792	34.83
963.218	35.35
963.644	35.14
964.07	35.43
964.496	35.46
964.923	35.44
965.349	35.74
965.775	36.02
966.201	35.15
966.627	35.42
967.053	35.49
967.479	35.73
967.905	35.06
968.331	35.18
968.756	35.27
969.182	35.39
969.608	35.78
970.034	35.38
970.46	35.06
970.885	35.78
971.311	35.39
971.737	35.57
972.162	35.44
972.588	35.45
973.014	35.49
973.439	35.54
973.865	35.58
974.29	35.57
974.716	35.63
975.141	35.84
975.567	35.47
975.992	35.7
976.417	35.61
976.843	35.67
977.268	35.28
977.693	35.99
978.119	35.85
978.544	35.62
978.969	36
979.394	35.99
979.819	35.84
980.244	35.3
980.669	36.22
981.095	36.18
981.52	35.84
981.945	35.87
982.369	35.55
982.794	36.14
983.219	36.08
983.644	35.78
984.069	35.93
984.494	36.24
984.919	36.38
985.343	36.56
985.768	36.4
986.193	36.05
986.618	36.61
987.042	35.64
987.467	36.24
987.891	36.5
988.316	36.84
988.741	36.58
989.165	36.7
989.59	36.1
990.014	36.5
990.438	36.67
990.863	36.82
991.287	36.61
991.712	37.03
992.136	36.65
992.56	36.44
992.984	36.8
993.409	36.97
993.833	36.52
994.257	36.72
994.681	37.06
995.105	36.99
995.529	36.89
995.953	36.49
996.377	36.57
996.801	36.7
997.225	36.78
997.649	37.54
998.073	37.1
998.497	37.35
998.921	37.11
999.345	37.3
999.769	37.13
1000.192	36.51
1000.616	36.84
1001.04	36.63
1001.464	37.72
1001.887	37.07
1002.311	37.01
1002.734	36.87
1003.158	37.01
1003.582	36.9
1004.005	37.2
1004.429	37.36
1004.852	37.15
1005.275	37.71
1005.699	37.14
1006.122	37.24
1006.546	37.71
1006.969	36.66
1007.392	37.18
1007.815	36.55
1008.239	37.47
1008.662	37.45
1009.085	37.25
1009.508	37.09
1009.931	37.19
1010.354	37.53
1010.778	37.36
1011.201	37.73
1011.624	37.17
1012.047	37.47
1012.469	37.62
1012.892	37.34
1013.315	37.74
1013.738	37.6
1014.161	37.77
1014.584	37.97
1015.007	38.03
1015.429	37.66
1015.852	37.69
1016.275	37.49
1016.697	37.89
1017.12	37.67
1017.543	38.17
1017.965	38.24
1018.388	37.59
1018.81	37.67
1019.233	37.44
1019.655	37.87
1020.078	37.68
1020.5	37.61
1020.922	37.78
1021.345	38.33
1021.767	37.95
1022.189	37.91
1022.612	38.02
1023.034	38.14
1023.456	38.29
1023.878	38.05
1024.301	38.23
1024.723	38.25
1025.145	38.03
1025.567	38.11
1025.989	38.69
1026.411	38.39
1026.833	38.29
1027.255	38.37
1027.677	38.65
1028.099	37.9
1028.52	37.99
1028.942	38.43
1029.364	38.05
1029.786	38.58
1030.208	38.25
1030.629	39.63
1031.051	38.67
1031.473	38.57
1031.894	38.55
1032.316	38.35
1032.738	38.94
1033.159	37.83
1033.581	38.46
1034.002	38.34
1034.424	38.86
1034.845	38.12
1035.267	38.99
1035.688	37.97
1036.109	39
1036.531	38.83
1036.952	38.73
1037.373	39.3
1037.794	38.46
1038.216	38.49
1038.637	38.8
1039.058	39.03
1039.479	39.68
1039.9	38.77
1040.321	38.63
1040.742	38.58
1041.163	39.36
1041.584	38.52
1042.005	38.63
1042.426	39.46
1042.847	38.59
1043.268	38.84
1043.689	39.22
1044.11	39.23
1044.53	38.84
1044.951	39.13
1045.372	39.15
1045.793	38.78
1046.213	38.81
1046.634	39.34
1047.055	38.51
1047.475	39.04
1047.896	39.12
1048.316	38.45
1048.737	39.91
1049.157	39.58
1049.578	39.43
1049.998	39.75
1050.419	39.27
1050.839	39.93
1051.259	39.51
1051.68	40.03
1052.1	39.49
1052.52	39.73
1052.94	39.07
1053.361	39.51
1053.781	39.02
1054.201	39.2
1054.621	39.71
1055.041	38.37
1055.461	39.94
1055.881	39.51
1056.301	39.41
1056.721	39.95
1057.141	38.99
1057.561	40.58
1057.981	39.21
1058.401	39.46
1058.82	40.64
1059.24	39.26
1059.66	40.05
1060.08	39.78
1060.499	40.14
1060.919	39.99
1061.339	40.02
1061.758	40.26
1062.178	40.24
1062.598	40.97
1063.017	39.2
1063.437	40.6
1063.856	39.62
1064.276	39.87
1064.695	39.61
1065.114	39.6
1065.534	40.52
1065.953	40.67
1066.372	40.17
1066.792	40.2
1067.211	39.74
1067.63	41.14
1068.049	40.05
1068.469	39.94
1068.888	40.07
1069.307	40.66
1069.726	40.09
1070.145	40.16
1070.564	40.57
1070.983	40.57
1071.402	40.96
1071.821	39.8
1072.24	40.19
1072.659	40.82
1073.078	39.43
1073.496	40.51
1073.915	40.43
1074.334	40.33
1074.753	39.72
1075.171	40.67
1075.59	41.16
1076.009	40.54
1076.427	40.43
1076.846	39.68
1077.265	39.84
1077.683	40.24
1078.102	39.66
1078.52	40.37
1078.939	40.58
1079.357	40.15
1079.776	40.95
1080.194	42.1
1080.612	41.59
1081.031	39.75
1081.449	39.84
1081.867	41.83
1082.285	40.63
1082.704	39.67
1083.122	39.99
1083.54	41.62
1083.958	39.75
1084.376	41.71
1084.794	40.71
1085.212	40.13
1085.63	39.25
1086.048	39.53
1086.466	40.16
1086.884	41.2
1087.302	41.25
1087.72	40.08
1088.138	39.28
1088.555	39.63
1088.973	41.04
1089.391	40.95
1089.809	40.75
1090.226	40.15
1090.644	37.89
1091.062	41.19
1091.479	39.86
1091.897	39.03
1092.314	39.9
1092.732	40.39
1093.15	41.04
1093.567	40.74
1093.984	42.18
1094.402	39.6
1094.819	39.32
1095.237	41.64
1095.654	41.1
1096.071	41.52
1096.488	43.47
1096.906	42.23
1097.323	41.38
1097.74	40.87
1098.157	40.09
1098.574	41.69
1098.991	41.32
1099.409	41.1
1099.826	39.57
1100.243	38.14
1100.66	42.86
1101.077	42.07
1101.494	40.46
1101.91	40.55
1102.327	39.83
1102.744	40.12
1103.161	42.33
1103.578	37.56
1103.994	38.54
1104.411	41.79
1104.828	40.81
1105.245	38.31
1105.661	41.93
1106.078	42.74
1106.494	42.46
1106.911	41.88
1107.328	39.73
1107.744	42.86
1108.161	42.36
1108.577	39.17
1108.993	37.39
1109.41	41.6
1109.826	42.29
1110.242	43.44
1110.659	39.75
1111.075	40.9
1111.491	41.18
1111.908	37.56
1112.324	42.42
1112.74	43.48
1113.156	38.77
1113.572	40.01
1113.988	39.41
1114.404	39.67
1114.82	37.64
1115.236	42.63
1115.652	43.61
1116.068	41.11
1116.484	41.63
1116.9	47.39
1117.316	40.3
1117.732	17.74
1118.147	71.15
1118.563	46.43
1118.979	109.37
