Data from JCR0003_Black2_Reflection_00001.txt Node
Date: Wed Jul 22 12:18:31 ACST 2020
User: Stacey Dix
Spectrometer: MAYP113282
Scans to average: 1
Trigger mode: 0
Integration Time (sec): 1.000000E-1
Electric dark correction enabled: true
Boxcar width: 0
XAxis mode: Wavelengths
Number of Pixels in Spectrum: 2068
>>>>>Begin Spectral Data<<<<<
198.791	-928.57
199.266	250
199.74	-1100
200.215	250
200.69	224.53
201.164	137.5
201.639	74.74
202.114	100
202.588	113.48
203.063	120.61
203.537	103.9
204.012	82.86
204.486	72.37
204.961	94.61
205.435	88.52
205.909	71.81
206.384	83.2
206.858	151.92
207.332	112.18
207.807	80.59
208.281	97.86
208.755	152.94
209.229	59.78
209.703	58.9
210.177	76.77
210.651	60.8
211.126	157.98
211.6	104.48
212.074	80.26
212.548	66.48
213.021	44.81
213.495	145.8
213.969	111.18
214.443	115.67
214.917	147.66
215.391	104.07
215.864	90.63
216.338	100
216.812	86.29
217.286	87.78
217.759	93.41
218.233	78.65
218.706	139.87
219.18	84.03
219.654	69.42
220.127	77.19
220.6	86.85
221.074	72.62
221.547	71.03
222.021	109.13
222.494	83.08
222.967	68.88
223.441	69.14
223.914	86.55
224.387	97.91
224.86	69.33
225.334	77.44
225.807	79.78
226.28	72.95
226.753	79.42
227.226	64.39
227.699	64.48
228.172	77.09
228.645	64.04
229.118	51.67
229.591	62.68
230.064	67.42
230.537	61.55
231.01	65.97
231.482	63.63
231.955	51.65
232.428	64.62
232.901	55.85
233.373	61.23
233.846	59.19
234.319	53.76
234.791	56.99
235.264	58.43
235.736	55.94
236.209	57.24
236.681	55.32
237.154	52.26
237.626	50.84
238.099	55.59
238.571	50.06
239.044	48.86
239.516	51.47
239.988	52.9
240.46	52.56
240.933	52.95
241.405	53.3
241.877	56
242.349	51.88
242.821	54.55
243.293	49.81
243.765	45.62
244.237	51.95
244.71	50.05
245.181	50.47
245.653	53.17
246.125	45.95
246.597	45.15
247.069	45.82
247.541	42.48
248.013	46.96
248.485	43.7
248.956	46.14
249.428	46.15
249.9	40.33
250.371	46.2
250.843	44.21
251.315	42.95
251.786	39.17
252.258	40.8
252.729	40.45
253.201	39.27
253.672	39.19
254.144	38.86
254.615	39.22
255.086	39.01
255.558	38.92
256.029	41.44
256.5	39.23
256.972	39.93
257.443	43.33
257.914	39.43
258.385	43.64
258.856	37.1
259.327	39.02
259.799	38.15
260.27	40.8
260.741	40.66
261.212	39.32
261.683	42.3
262.154	37.47
262.624	37.64
263.095	37.85
263.566	40.91
264.037	38.03
264.508	40.4
264.979	41.81
265.449	40.21
265.92	40.05
266.391	40.78
266.861	39.85
267.332	42.44
267.803	38.99
268.273	40.47
268.744	40.09
269.214	41.11
269.685	36.43
270.155	40.33
270.626	44.28
271.096	40.95
271.566	40.21
272.037	36.36
272.507	39.73
272.977	41.35
273.448	39.74
273.918	44.9
274.388	43.79
274.858	37.46
275.328	42.82
275.798	40.94
276.268	40.19
276.738	42.24
277.208	38.68
277.678	39.26
278.148	44.9
278.618	42.76
279.088	39.68
279.558	41.01
280.028	45.14
280.498	42.44
280.968	42.87
281.437	41.43
281.907	39.29
282.377	38.83
282.847	43.2
283.316	40.81
283.786	40.87
284.255	37.04
284.725	38.88
285.194	42
285.664	37.84
286.133	37.1
286.603	39.62
287.072	39.44
287.542	38.5
288.011	36.71
288.48	37.61
288.95	38.9
289.419	37.29
289.888	36.51
290.357	38.2
290.827	37.04
291.296	39.05
291.765	35.15
292.234	38.82
292.703	39.49
293.172	35.97
293.641	36.78
294.11	38.43
294.579	36.86
295.048	39.11
295.517	36.99
295.986	34.67
296.455	35.42
296.923	35.92
297.392	36.37
297.861	35.37
298.33	37.83
298.798	34.26
299.267	38.89
299.736	39.94
300.204	37.88
300.673	36.38
301.141	36
301.61	32.89
302.079	36.06
302.547	34.4
303.015	34.41
303.484	34.19
303.952	34.86
304.421	35.77
304.889	35.99
305.357	35.24
305.825	34.48
306.294	35.19
306.762	32.3
307.23	34.61
307.698	35.39
308.166	33.07
308.634	34.06
309.103	34.34
309.571	33.1
310.039	33.69
310.507	34.73
310.975	30.06
311.442	35.74
311.91	32.83
312.378	36.81
312.846	33.17
313.314	33.79
313.782	33.37
314.249	30.56
314.717	34.39
315.185	31.98
315.652	31.8
316.12	35.94
316.588	30.63
317.055	34.09
317.523	31.62
317.99	34.06
318.458	30.16
318.925	32.45
319.393	31.01
319.86	30.36
320.328	31.87
320.795	29.48
321.262	30.63
321.73	31.97
322.197	31.43
322.664	27.07
323.131	29.31
323.598	30.22
324.066	28.24
324.533	29.74
325	30.01
325.467	27.97
325.934	31.21
326.401	29.72
326.868	28.54
327.335	28.22
327.802	29.35
328.269	29.76
328.735	29.31
329.202	30.78
329.669	29.27
330.136	28.24
330.603	28.81
331.069	28.06
331.536	29.21
332.003	28.78
332.469	28.34
332.936	29.12
333.402	29.01
333.869	27.44
334.336	27.5
334.802	27.13
335.268	28.41
335.735	28.31
336.201	27.83
336.668	29.15
337.134	29.11
337.6	27.7
338.067	27.59
338.533	28.27
338.999	26.3
339.465	27.16
339.931	26.25
340.398	24.1
340.864	28.48
341.33	23.42
341.796	25.53
342.262	28.93
342.728	25.58
343.194	27.82
343.66	24.38
344.126	25.52
344.592	27.28
345.057	27.06
345.523	27.95
345.989	26.26
346.455	23.94
346.921	25.8
347.386	25.44
347.852	27.09
348.318	25.51
348.783	25.12
349.249	24.89
349.714	25.08
350.18	23.7
350.645	26.37
351.111	25.87
351.576	26.12
352.042	21.9
352.507	25.71
352.973	28.06
353.438	21.73
353.903	22.94
354.369	24.57
354.834	22.65
355.299	25.57
355.764	23.97
356.229	23.53
356.695	23.05
357.16	24.86
357.625	24.79
358.09	25.32
358.555	23.83
359.02	26.72
359.485	25.77
359.95	21.99
360.415	23.1
360.879	25.26
361.344	25.41
361.809	24.09
362.274	24.45
362.739	24.98
363.203	23.14
363.668	22.22
364.133	20.83
364.597	24.71
365.062	24.98
365.527	22.01
365.991	22.44
366.456	22.94
366.92	23.85
367.385	21.11
367.849	24.44
368.314	21.64
368.778	23.38
369.242	23.69
369.707	20.38
370.171	20.71
370.635	24.25
371.1	23.68
371.564	24.08
372.028	22.16
372.492	23.82
372.956	20.28
373.42	22.93
373.884	20.76
374.348	22.76
374.812	21.33
375.276	21.31
375.74	21.38
376.204	23.15
376.668	19.25
377.132	23.96
377.596	20.86
378.06	22.56
378.524	19.42
378.987	21.98
379.451	19.64
379.915	22.31
380.378	19.52
380.842	21.46
381.306	22.65
381.769	22.13
382.233	22.27
382.696	20.04
383.16	21.08
383.623	20.47
384.087	21.57
384.55	21.33
385.014	18.73
385.477	21.36
385.94	21.49
386.404	21.65
386.867	21.51
387.33	20.4
387.793	21.83
388.256	21.25
388.72	19.44
389.183	22.56
389.646	19.85
390.109	20.38
390.572	21.25
391.035	20.68
391.498	20.91
391.961	20.12
392.424	20.75
392.887	20.69
393.35	20.68
393.812	21.01
394.275	18.83
394.738	20.54
395.201	21.26
395.664	21.49
396.126	22.82
396.589	19.49
397.052	20.62
397.514	21.47
397.977	21.51
398.439	21.1
398.902	19.14
399.364	20.89
399.827	21.35
400.289	21.32
400.752	20.98
401.214	20.83
401.676	19.9
402.139	20.43
402.601	22.19
403.063	19.95
403.525	19.77
403.988	20.38
404.45	21.67
404.912	22.19
405.374	18.04
405.836	20.34
406.298	19.87
406.76	19.4
407.222	20.36
407.684	19.74
408.146	18.43
408.608	17.38
409.07	19.41
409.532	21.34
409.994	19.08
410.456	21.86
410.917	20.01
411.379	19.36
411.841	21.01
412.303	19.12
412.764	18.74
413.226	20.8
413.687	20.17
414.149	19.51
414.611	18.56
415.072	19
415.534	18.96
415.995	19.2
416.457	18.71
416.918	19.18
417.379	18.69
417.841	22.05
418.302	18.61
418.763	18.31
419.225	19.82
419.686	16.77
420.147	17.77
420.608	19.21
421.069	18.93
421.53	19.82
421.991	18.73
422.453	18.56
422.914	19.78
423.375	18.75
423.836	18.43
424.297	21.15
424.757	19.7
425.218	19.79
425.679	19.32
426.14	18.86
426.601	19.37
427.062	19.93
427.522	19.18
427.983	19.89
428.444	20.08
428.904	18.65
429.365	19.69
429.826	20.09
430.286	20.32
430.747	23.81
431.207	22.64
431.668	19.61
432.128	19.6
432.589	20.24
433.049	19.3
433.509	18.19
433.97	22.27
434.43	21.79
434.89	21.63
435.351	19.04
435.811	18.75
436.271	20.12
436.731	20.59
437.191	17.38
437.651	18.39
438.112	19.97
438.572	18.29
439.032	21.72
439.492	19.52
439.952	19.22
440.412	17.94
440.871	23.54
441.331	19.73
441.791	20.46
442.251	19.12
442.711	20.54
443.171	18.38
443.63	18.42
444.09	19.15
444.55	20.27
445.009	16.55
445.469	17.27
445.929	19.17
446.388	20.74
446.848	19.3
447.307	22
447.767	19.61
448.226	18.48
448.686	18.51
449.145	16.95
449.604	21.08
450.064	17.14
450.523	16.79
450.982	18.4
451.442	19.3
451.901	17.84
452.36	18.41
452.819	18.67
453.278	19.07
453.737	20.89
454.197	17.49
454.656	17.88
455.115	21.23
455.574	16.32
456.033	20.14
456.492	21.95
456.95	17.68
457.409	20.08
457.868	20.58
458.327	20.58
458.786	18.95
459.245	19.14
459.703	18.92
460.162	20.87
460.621	16.84
461.079	20.19
461.538	18.66
461.997	18.19
462.455	17.09
462.914	19.77
463.372	18.93
463.831	19.64
464.289	19
464.748	19.06
465.206	20.68
465.664	20.24
466.123	22.71
466.581	19.54
467.039	17.72
467.497	18.38
467.956	18.7
468.414	20.53
468.872	19.33
469.33	20.63
469.788	19.5
470.246	19
470.704	22.72
471.162	21.67
471.62	16.9
472.078	23.25
472.536	21.64
472.994	17.96
473.452	19.46
473.91	21.4
474.368	19.45
474.826	16.9
475.283	20.23
475.741	19.51
476.199	19.64
476.656	24.54
477.114	22.68
477.572	17.44
478.029	18.35
478.487	21.11
478.944	20.91
479.402	19.52
479.859	21.96
480.317	19.94
480.774	18.36
481.232	20.87
481.689	19.71
482.146	18.79
482.604	22.18
483.061	18.08
483.518	17.98
483.975	17.1
484.433	17.76
484.89	18.69
485.347	21.71
485.804	23.26
486.261	20.81
486.718	20.24
487.175	19.67
487.632	19.58
488.089	23.42
488.546	18.92
489.003	17.08
489.46	21.19
489.917	20.69
490.373	19.73
490.83	15.93
491.287	20.74
491.744	21.45
492.2	18.86
492.657	17.95
493.114	20.59
493.57	17.95
494.027	22.95
494.484	23.77
494.94	20.15
495.397	17.39
495.853	21.87
496.31	17.97
496.766	22.57
497.222	19.84
497.679	21.65
498.135	20.66
498.591	20.27
499.048	20.7
499.504	19.22
499.96	20.79
500.416	18.57
500.872	17.81
501.329	18.69
501.785	22.08
502.241	17.94
502.697	18.55
503.153	20.8
503.609	23.39
504.065	19.99
504.521	18.68
504.977	22.19
505.432	20.55
505.888	18.39
506.344	17.68
506.8	21.29
507.256	19.86
507.711	16.92
508.167	18.96
508.623	20.56
509.078	18.92
509.534	21.19
509.99	15.85
510.445	19.3
510.901	18.25
511.356	20.03
511.812	18.61
512.267	19.63
512.722	19.48
513.178	18.99
513.633	16.94
514.089	17.89
514.544	17.83
514.999	19.42
515.454	18.25
515.91	18.3
516.365	17.72
516.82	18.11
517.275	19.59
517.73	21.1
518.185	18.94
518.64	19.96
519.095	16.86
519.55	18.73
520.005	19.54
520.46	18.14
520.915	19.39
521.37	19.77
521.825	17.54
522.28	18.15
522.734	17.75
523.189	16.17
523.644	18.7
524.099	19.13
524.553	19.14
525.008	18.24
525.462	17.68
525.917	18.3
526.372	17.3
526.826	18.08
527.281	17.36
527.735	18.96
528.19	19.5
528.644	17.38
529.098	18.01
529.553	18.78
530.007	19.53
530.461	19.71
530.916	19.23
531.37	19.79
531.824	17.02
532.278	16.97
532.732	19.07
533.186	21.25
533.641	19.12
534.095	20.3
534.549	20.58
535.003	15.8
535.457	18.54
535.911	17.76
536.365	20.31
536.818	19.46
537.272	19.01
537.726	17.33
538.18	19.93
538.634	20.66
539.087	17.93
539.541	19.42
539.995	18.16
540.449	20.92
540.902	17.47
541.356	19.2
541.809	18.79
542.263	22.18
542.716	21.15
543.17	17.38
543.623	20.73
544.077	20.87
544.53	17.05
544.984	18.23
545.437	17.53
545.89	16.92
546.344	18.48
546.797	20.07
547.25	19.9
547.703	19.81
548.157	21.88
548.61	21.02
549.063	16.42
549.516	17.37
549.969	20.16
550.422	20.18
550.875	18.51
551.328	17.64
551.781	19.24
552.234	19.1
552.687	19.58
553.14	19.08
553.592	16.73
554.045	20.49
554.498	19.13
554.951	19.28
555.404	19.48
555.856	17.8
556.309	17.95
556.762	17.82
557.214	19.36
557.667	18.02
558.119	17.61
558.572	18.44
559.024	20.28
559.477	18.55
559.929	19.25
560.382	18.6
560.834	18.23
561.286	16.83
561.739	18.68
562.191	18.32
562.643	19.62
563.095	18.91
563.548	18
564	17.37
564.452	18.42
564.904	18.9
565.356	18.99
565.808	17.94
566.26	17.68
566.712	15.79
567.164	18.89
567.616	15.72
568.068	18.12
568.52	17.86
568.972	19.95
569.424	17.23
569.876	16.76
570.327	18.36
570.779	17.97
571.231	18.87
571.682	17.17
572.134	19.19
572.586	19.01
573.037	17.71
573.489	18.98
573.941	17.79
574.392	17.19
574.844	18.31
575.295	17.32
575.746	18.22
576.198	19.27
576.649	16.92
577.101	17.85
577.552	17.14
578.003	17.92
578.454	17.29
578.906	17.71
579.357	16.3
579.808	18.95
580.259	18.4
580.71	18.36
581.161	17.82
581.612	18.32
582.064	17.15
582.515	18.47
582.965	17.53
583.416	17.05
583.867	15.29
584.318	17.1
584.769	16.46
585.22	17.55
585.671	19.2
586.122	18.03
586.572	16.18
587.023	18.16
587.474	18.71
587.924	17.65
588.375	18.11
588.826	17.67
589.276	17.92
589.727	18.69
590.177	19.44
590.628	17.63
591.078	16.16
591.529	17.61
591.979	16.28
592.429	18.31
592.88	18.82
593.33	18.78
593.78	17.19
594.231	17.82
594.681	20.5
595.131	17.53
595.581	18.73
596.031	17.84
596.481	17.57
596.932	18.68
597.382	18.78
597.832	16.78
598.282	18.41
598.732	18.59
599.182	17.59
599.632	16.73
600.081	16.73
600.531	19.47
600.981	18.73
601.431	16.88
601.881	17.6
602.33	18.36
602.78	18.22
603.23	18.49
603.679	18.65
604.129	18.77
604.579	18.53
605.028	19.58
605.478	17.2
605.927	19.18
606.377	17.78
606.826	18.51
607.276	16.96
607.725	17.91
608.175	17.05
608.624	17.94
609.073	17.77
609.522	18.02
609.972	18.76
610.421	17.17
610.87	17.17
611.319	16.53
611.768	17.46
612.218	17.09
612.667	17.32
613.116	17.66
613.565	17.56
614.014	17.62
614.463	16.78
614.912	18.43
615.361	18.1
615.81	18.52
616.258	17.88
616.707	19.51
617.156	18.26
617.605	17.62
618.054	16.99
618.502	17.69
618.951	17.66
619.4	18.3
619.848	16.13
620.297	18.41
620.745	18.84
621.194	17.11
621.642	19.02
622.091	17.99
622.539	16.96
622.988	16.19
623.436	17.5
623.885	18.08
624.333	18.67
624.781	17.28
625.23	18.45
625.678	18.64
626.126	17.56
626.574	17.96
627.022	16.85
627.471	16.6
627.919	17.26
628.367	18.19
628.815	18.46
629.263	17.66
629.711	17.89
630.159	18.1
630.607	17.99
631.055	17.54
631.503	17.35
631.95	17.05
632.398	16.9
632.846	17.17
633.294	17.08
633.742	17.58
634.189	17.34
634.637	18.74
635.085	16.96
635.532	19.35
635.98	16.55
636.427	17.82
636.875	18.04
637.323	18.28
637.77	17.53
638.217	18.27
638.665	17.18
639.112	17.66
639.56	18.55
640.007	18.72
640.454	17.95
640.902	18.01
641.349	17.42
641.796	17.35
642.243	17.31
642.69	18.47
643.138	18.41
643.585	18.48
644.032	17.09
644.479	18.56
644.926	17.19
645.373	17.86
645.82	18.05
646.267	19.33
646.714	16.86
647.161	18
647.607	17
648.054	16.94
648.501	17.53
648.948	17.72
649.395	16.41
649.841	18.12
650.288	18.45
650.735	19.39
651.181	17.26
651.628	17.03
652.075	17.87
652.521	17.52
652.968	19.39
653.414	17.36
653.861	17.31
654.307	17.92
654.753	17.07
655.2	17.79
655.646	17.53
656.092	17.51
656.539	18.62
656.985	18.2
657.431	17.53
657.877	17.12
658.324	17.67
658.77	16.66
659.216	17.35
659.662	18.37
660.108	18.02
660.554	17.5
661	17.58
661.446	17.07
661.892	18.53
662.338	17.12
662.784	17.73
663.23	17.47
663.675	17.54
664.121	17.51
664.567	17.1
665.013	17.47
665.458	17.95
665.904	18.91
666.35	17.5
666.795	17.81
667.241	18.56
667.687	17.77
668.132	18.85
668.578	16.52
669.023	16.73
669.469	17.23
669.914	17.81
670.359	18.29
670.805	18.17
671.25	17.96
671.695	18.25
672.141	17.85
672.586	17.37
673.031	18.11
673.476	17.77
673.922	17.19
674.367	18.04
674.812	17.42
675.257	19.03
675.702	17.92
676.147	16.47
676.592	17.86
677.037	18.14
677.482	17.73
677.927	18.35
678.372	18.51
678.817	17.95
679.261	18.96
679.706	17.67
680.151	17.25
680.596	17.54
681.04	18.01
681.485	17.11
681.93	18.43
682.374	17.73
682.819	18.33
683.264	17.66
683.708	18.5
684.153	17.4
684.597	17.67
685.042	19.03
685.486	18.02
685.93	17.97
686.375	18.73
686.819	18.4
687.263	18.7
687.708	18.97
688.152	18.41
688.596	18.14
689.04	18.04
689.485	18.01
689.929	19.07
690.373	18
690.817	18.63
691.261	17.51
691.705	18.01
692.149	18.71
692.593	19.11
693.037	18.14
693.481	18.96
693.925	18.78
694.369	18.35
694.812	17.76
695.256	18.27
695.7	17.96
696.144	18.46
696.587	18.67
697.031	17.49
697.475	18.48
697.918	17.3
698.362	17.68
698.806	18.16
699.249	18.26
699.693	18.87
700.136	17.28
700.58	18.39
701.023	18.17
701.466	18.02
701.91	18.28
702.353	18.05
702.796	18.71
703.24	18.06
703.683	17.84
704.126	18.53
704.569	18.91
705.013	17.7
705.456	18.1
705.899	18.58
706.342	18.09
706.785	17.92
707.228	19.09
707.671	18.85
708.114	18.46
708.557	18.34
709	18.43
709.443	18.2
709.886	18.45
710.328	19.09
710.771	18.21
711.214	19.01
711.657	18.64
712.099	19.33
712.542	17.6
712.985	18.3
713.427	18.84
713.87	18.21
714.313	18.97
714.755	17.45
715.198	19.05
715.64	18.66
716.083	18.4
716.525	17.77
716.967	19.02
717.41	18.55
717.852	18.69
718.295	18.22
718.737	18.41
719.179	18.14
719.621	19.23
720.063	19.17
720.506	17.88
720.948	19.45
721.39	18.75
721.832	18.9
722.274	19.08
722.716	19.18
723.158	18.65
723.6	18.78
724.042	18.54
724.484	18.64
724.926	19.05
725.368	18.85
725.81	18.31
726.251	19.01
726.693	19.24
727.135	19.17
727.577	18.56
728.018	19.29
728.46	19.2
728.902	18.74
729.343	19.27
729.785	19.12
730.226	18.89
730.668	19.09
731.109	18.57
731.551	18.97
731.992	19.1
732.434	19.03
732.875	19.2
733.316	18.88
733.758	20.1
734.199	18.99
734.64	18.89
735.081	18.52
735.523	20.04
735.964	19.06
736.405	20.08
736.846	19.37
737.287	19.07
737.728	18.51
738.169	18.49
738.61	19.19
739.051	18.43
739.492	19.75
739.933	19.37
740.374	18.96
740.815	19.29
741.256	19.28
741.696	19.29
742.137	19.35
742.578	19.13
743.019	18.63
743.459	19.54
743.9	19.51
744.341	19.36
744.781	18.72
745.222	19.33
745.662	19.33
746.103	20.3
746.543	18.94
746.984	19.84
747.424	20.01
747.865	19.73
748.305	19.55
748.745	19.59
749.186	19.98
749.626	19.65
750.066	19.1
750.506	19.4
750.947	19.31
751.387	19.43
751.827	19.31
752.267	19.34
752.707	19.22
753.147	20.59
753.587	19.4
754.027	19.39
754.467	19.46
754.907	19.79
755.347	19.44
755.787	20.49
756.227	19.91
756.667	19.74
757.107	19.22
757.546	19.65
757.986	19.27
758.426	20.44
758.865	19.67
759.305	18.66
759.745	20.04
760.184	19.4
760.624	19.35
761.063	19.5
761.503	19.59
761.943	20.05
762.382	18.61
762.821	19.36
763.261	19.81
763.7	20.48
764.14	19.46
764.579	20.23
765.018	19.26
765.457	19.93
765.897	19.72
766.336	19.63
766.775	20.22
767.214	19.45
767.653	19.79
768.092	19.76
768.531	19.37
768.97	20.11
769.409	19.65
769.848	20.37
770.287	21.03
770.726	20.6
771.165	20.28
771.604	20.28
772.043	19.54
772.482	20.31
772.92	20.23
773.359	20.04
773.798	19.68
774.237	19.27
774.675	19.66
775.114	19.9
775.553	20.56
775.991	19.45
776.43	20.14
776.868	19.66
777.307	19.46
777.745	20
778.184	19.61
778.622	19.24
779.06	19.98
779.499	20.17
779.937	19.74
780.375	19.9
780.814	19.95
781.252	21.13
781.69	20.32
782.128	20.01
782.566	20.07
783.004	20.21
783.443	20.38
783.881	20.19
784.319	20.23
784.757	20.63
785.195	20.26
785.633	21.14
786.071	19.63
786.508	19.9
786.946	19.92
787.384	20.52
787.822	20.01
788.26	19.64
788.697	20.92
789.135	21.48
789.573	19.92
790.011	19.16
790.448	20.72
790.886	20.58
791.323	19.84
791.761	20.05
792.198	21.09
792.636	20.14
793.073	19.7
793.511	20.45
793.948	20.67
794.386	20.56
794.823	21.09
795.26	20.81
795.698	20.76
796.135	20.78
796.572	20.08
797.009	21.53
797.446	20.67
797.884	20.18
798.321	19.42
798.758	19.77
799.195	19.97
799.632	20.65
800.069	20.41
800.506	20.15
800.943	20.69
801.38	20.45
801.817	20.12
802.254	20.92
802.69	21.07
803.127	20.81
803.564	20.86
804.001	21.54
804.438	20.97
804.874	20.76
805.311	20.66
805.748	19.99
806.184	20.56
806.621	20.34
807.057	20.4
807.494	20.65
807.93	20.69
808.367	20.95
808.803	20.7
809.24	20.95
809.676	20.87
810.112	20.48
810.549	20.53
810.985	21.1
811.421	20.64
811.857	20.93
812.294	20.26
812.73	21.37
813.166	21.06
813.602	21.64
814.038	21.46
814.474	21.69
814.91	20.42
815.346	21.23
815.782	20.99
816.218	20.99
816.654	20.94
817.09	21.55
817.526	21.17
817.962	21.2
818.398	21.27
818.833	21.29
819.269	21.1
819.705	21.26
820.141	21.11
820.576	20.92
821.012	22.05
821.447	21.96
821.883	20.84
822.319	22
822.754	21.25
823.19	21.42
823.625	21.89
824.061	21.49
824.496	20.87
824.931	21.08
825.367	21.66
825.802	21.69
826.237	21.08
826.673	21.78
827.108	21.25
827.543	21.51
827.978	21.36
828.413	21.5
828.849	21.99
829.284	21.47
829.719	22.16
830.154	21.45
830.589	21.05
831.024	21.94
831.459	21.94
831.894	22
832.329	21.48
832.763	21.46
833.198	21.38
833.633	21.18
834.068	21.65
834.503	21.5
834.937	21.73
835.372	21.77
835.807	21.65
836.241	22.1
836.676	22.09
837.111	21.66
837.545	21.86
837.98	21.82
838.414	21.2
838.849	22.7
839.283	21.51
839.717	21.95
840.152	22.03
840.586	22.02
841.021	22.04
841.455	21.7
841.889	22.16
842.323	21.66
842.758	21.78
843.192	22.14
843.626	21.95
844.06	21.94
844.494	22.47
844.928	21.31
845.362	21.76
845.796	22.18
846.23	22.37
846.664	22.22
847.098	21.93
847.532	21.55
847.966	22.78
848.4	21.8
848.834	22.56
849.267	21.98
849.701	22.28
850.135	22.21
850.569	22.24
851.002	23.25
851.436	22.14
851.87	22.47
852.303	22.25
852.737	22.19
853.17	22.11
853.604	22.04
854.037	22.44
854.471	22.97
854.904	22.71
855.337	22.81
855.771	23.03
856.204	22.97
856.637	22.63
857.071	22.67
857.504	22.42
857.937	22.77
858.37	22.24
858.804	23.02
859.237	23.03
859.67	23.55
860.103	22.79
860.536	22.8
860.969	23.48
861.402	22.66
861.835	22.65
862.268	23.51
862.701	22.64
863.134	22.7
863.566	22.61
863.999	23.1
864.432	22.69
864.865	23.05
865.298	22.94
865.73	23.16
866.163	22.83
866.596	22.36
867.028	22.78
867.461	23.35
867.893	23.56
868.326	23.58
868.758	22.57
869.191	22.97
869.623	23.19
870.056	22.86
870.488	23.19
870.92	23.38
871.353	23.7
871.785	22.79
872.217	22.59
872.65	22.81
873.082	23.59
873.514	23.29
873.946	23.07
874.378	22.99
874.81	23.83
875.243	23.38
875.675	22.81
876.107	22.93
876.539	23.69
876.971	23.59
877.403	23.13
877.834	23.24
878.266	23.19
878.698	24.07
879.13	22.94
879.562	23.3
879.994	22.81
880.425	22.72
880.857	23.22
881.289	23.76
881.72	23.38
882.152	23.17
882.584	23.65
883.015	23.25
883.447	23.04
883.878	23.74
884.31	23.56
884.741	23.28
885.173	23.85
885.604	23.22
886.035	23.1
886.467	24.02
886.898	23.78
887.329	23.62
887.76	23.48
888.192	23.98
888.623	23.5
889.054	24.37
889.485	23.58
889.916	24.04
890.347	23.5
890.778	23.37
891.209	23.71
891.64	23.69
892.071	24.16
892.502	24.71
892.933	23.72
893.364	23.8
893.795	23.74
894.226	24.02
894.657	23.92
895.087	23.82
895.518	24.42
895.949	24.75
896.38	24.54
896.81	24.55
897.241	24.02
897.671	23.84
898.102	24.16
898.533	23.84
898.963	24.23
899.394	24.24
899.824	24.28
900.254	24.58
900.685	24.02
901.115	23.86
901.546	24.17
901.976	24.03
902.406	23.78
902.836	24.14
903.267	24.27
903.697	24.37
904.127	23.66
904.557	24.73
904.987	24.32
905.417	24.25
905.847	24.01
906.277	24.43
906.707	24.33
907.137	24.32
907.567	24.46
907.997	24.31
908.427	24.23
908.857	24.22
909.287	24.46
909.717	24.03
910.146	24.16
910.576	24.32
911.006	24.57
911.436	25.26
911.865	24.73
912.295	24.55
912.724	24.57
913.154	24.53
913.584	24.92
914.013	23.75
914.443	25.02
914.872	24.82
915.302	24.89
915.731	24.9
916.16	25.15
916.59	24.46
917.019	25.08
917.448	25.56
917.878	25.07
918.307	25.14
918.736	25.05
919.165	24.8
919.594	24.85
920.023	25.04
920.452	25.09
920.882	24.29
921.311	25.36
921.74	24.93
922.169	25.21
922.597	24.58
923.026	24.82
923.455	25.6
923.884	25.03
924.313	25.19
924.742	24.97
925.171	25.12
925.599	25.09
926.028	25.5
926.457	25.22
926.885	25.15
927.314	25.35
927.743	24.79
928.171	25.18
928.6	25.11
929.028	25.33
929.457	25.42
929.885	25.02
930.314	25.29
930.742	25.38
931.17	25.24
931.599	25.17
932.027	25.72
932.455	25.54
932.884	25.58
933.312	25.53
933.74	25.63
934.168	25.54
934.596	25.78
935.025	25.27
935.453	26.31
935.881	25.2
936.309	25.72
936.737	25.91
937.165	25.48
937.593	26.28
938.021	25.84
938.449	25.46
938.876	25.88
939.304	25.67
939.732	25.96
940.16	25.68
940.588	25.72
941.015	26.01
941.443	27.1
941.871	25.3
942.298	26.23
942.726	26.58
943.154	26.16
943.581	25.61
944.009	26.12
944.436	26.92
944.864	26.1
945.291	25.63
945.718	26.67
946.146	25.75
946.573	26.5
947.001	26.22
947.428	26.35
947.855	27.18
948.282	26.77
948.71	26.28
949.137	26.12
949.564	26.98
949.991	26.26
950.418	27
950.845	25.67
951.272	27.07
951.699	26.19
952.126	25.85
952.553	26.92
952.98	26.08
953.407	25.93
953.834	27.07
954.261	26.5
954.688	26.43
955.114	26.35
955.541	27.58
955.968	26.67
956.395	27.11
956.821	26.49
957.248	26.57
957.674	26.37
958.101	27.14
958.528	26.55
958.954	26.44
959.381	26.21
959.807	27.29
960.234	26.17
960.66	26.81
961.086	26.5
961.513	26.69
961.939	26.85
962.365	27.14
962.792	26.59
963.218	26.62
963.644	25.97
964.07	26.92
964.496	26.63
964.923	26.39
965.349	26.42
965.775	26.95
966.201	27.01
966.627	27.15
967.053	26.71
967.479	26.64
967.905	27.16
968.331	26.92
968.756	26.73
969.182	26.72
969.608	27.16
970.034	27.08
970.46	27.25
970.885	26.86
971.311	26.8
971.737	26.73
972.162	27.29
972.588	26.94
973.014	26.6
973.439	27.19
973.865	26.75
974.29	27.48
974.716	27.06
975.141	27.06
975.567	27.01
975.992	27.67
976.417	27.43
976.843	27.46
977.268	27.44
977.693	27.13
978.119	27.32
978.544	27.6
978.969	27.89
979.394	27.01
979.819	27.32
980.244	27.76
980.669	27.3
981.095	27.21
981.52	28.02
981.945	27.71
982.369	27.79
982.794	27.7
983.219	27.64
983.644	27.3
984.069	27.44
984.494	28.09
984.919	27.55
985.343	27.28
985.768	28.3
986.193	28.08
986.618	27.65
987.042	28.21
987.467	28.11
987.891	27.87
988.316	28.15
988.741	28.3
989.165	28.22
989.59	28.09
990.014	28.36
990.438	28.11
990.863	27.9
991.287	27.71
991.712	27.64
992.136	28.16
992.56	28.03
992.984	28.69
993.409	27.96
993.833	28.63
994.257	28.22
994.681	28.32
995.105	28.26
995.529	27.88
995.953	28.36
996.377	28.16
996.801	28.5
997.225	27.98
997.649	28.07
998.073	28.32
998.497	27.7
998.921	28.78
999.345	28.24
999.769	28.44
1000.192	28.56
1000.616	28.23
1001.04	28.42
1001.464	28.63
1001.887	28.76
1002.311	28.9
1002.734	28.19
1003.158	28.98
1003.582	28.34
1004.005	28.47
1004.429	28.67
1004.852	29.26
1005.275	28.04
1005.699	28.63
1006.122	28.58
1006.546	29.31
1006.969	28.82
1007.392	28.55
1007.815	29.16
1008.239	29.18
1008.662	28.34
1009.085	29.09
1009.508	29.44
1009.931	29.26
1010.354	29.44
1010.778	28.84
1011.201	29.42
1011.624	29.29
1012.047	29.7
1012.469	29.38
1012.892	28.9
1013.315	29.61
1013.738	29.15
1014.161	29.48
1014.584	28.96
1015.007	29.51
1015.429	29.54
1015.852	28.71
1016.275	29.2
1016.697	29.41
1017.12	29.66
1017.543	28.8
1017.965	30.11
1018.388	30.01
1018.81	29.14
1019.233	29.96
1019.655	29.29
1020.078	29.63
1020.5	29.82
1020.922	29.91
1021.345	29.9
1021.767	29.62
1022.189	29.54
1022.612	29.38
1023.034	29.69
1023.456	29.8
1023.878	30.13
1024.301	30.13
1024.723	30.29
1025.145	29.02
1025.567	29.99
1025.989	29.97
1026.411	30.41
1026.833	30.49
1027.255	29.58
1027.677	30.23
1028.099	30.98
1028.52	30.11
1028.942	30.15
1029.364	29.88
1029.786	30.19
1030.208	30.16
1030.629	29.71
1031.051	30
1031.473	30.19
1031.894	30.09
1032.316	29.96
1032.738	30
1033.159	30.65
1033.581	30.67
1034.002	30.45
1034.424	30.37
1034.845	30.11
1035.267	30.12
1035.688	30.81
1036.109	30.41
1036.531	30.4
1036.952	30.42
1037.373	30.88
1037.794	30.13
1038.216	30.87
1038.637	30.74
1039.058	30.92
1039.479	30.87
1039.9	31.23
1040.321	31.24
1040.742	30.8
1041.163	30.8
1041.584	30.81
1042.005	30.93
1042.426	30.78
1042.847	30.44
1043.268	31.06
1043.689	30.43
1044.11	30.44
1044.53	31.51
1044.951	31.07
1045.372	31.47
1045.793	30.84
1046.213	31.27
1046.634	32.48
1047.055	31.89
1047.475	31.03
1047.896	30.72
1048.316	30.8
1048.737	31.02
1049.157	32.01
1049.578	31.4
1049.998	31.54
1050.419	31.04
1050.839	30.98
1051.259	31.21
1051.68	31.03
1052.1	31.21
1052.52	31.47
1052.94	31.8
1053.361	31.85
1053.781	30.75
1054.201	31.97
1054.621	31.24
1055.041	31.97
1055.461	31.37
1055.881	31.45
1056.301	31.49
1056.721	32.21
1057.141	32.47
1057.561	32.33
1057.981	31.14
1058.401	32.25
1058.82	31.97
1059.24	31.52
1059.66	31.47
1060.08	34.01
1060.499	31.49
1060.919	31.48
1061.339	32.71
1061.758	32.1
1062.178	33
1062.598	31.9
1063.017	32.08
1063.437	32.38
1063.856	32.34
1064.276	32.7
1064.695	31.38
1065.114	32.47
1065.534	32.1
1065.953	33.79
1066.372	33.38
1066.792	32.75
1067.211	33.34
1067.63	33.13
1068.049	33.08
1068.469	32.89
1068.888	33.1
1069.307	33.51
1069.726	32.98
1070.145	32.97
1070.564	32.77
1070.983	33.49
1071.402	33.19
1071.821	32.12
1072.24	33.59
1072.659	33.32
1073.078	33.04
1073.496	33.63
1073.915	33.46
1074.334	33.19
1074.753	32.67
1075.171	32.44
1075.59	34.38
1076.009	33.24
1076.427	32.1
1076.846	33.55
1077.265	32.31
1077.683	34.22
1078.102	34.62
1078.52	33.79
1078.939	32.81
1079.357	32.57
1079.776	35.07
1080.194	32.09
1080.612	36.01
1081.031	33.55
1081.449	33.27
1081.867	35.06
1082.285	33.04
1082.704	33.21
1083.122	34.58
1083.54	33.27
1083.958	33.49
1084.376	32.97
1084.794	34.62
1085.212	34.6
1085.63	33.97
1086.048	33.5
1086.466	33.46
1086.884	34.67
1087.302	32.65
1087.72	33.79
1088.138	33.24
1088.555	35.4
1088.973	34.3
1089.391	34.22
1089.809	34.49
1090.226	35.41
1090.644	34.6
1091.062	33.07
1091.479	34.49
1091.897	34.18
1092.314	33.84
1092.732	33.3
1093.15	35.02
1093.567	32.65
1093.984	36.16
1094.402	35.57
1094.819	36.49
1095.237	34.69
1095.654	34.41
1096.071	33.58
1096.488	36.16
1096.906	36.26
1097.323	34.94
1097.74	33.74
1098.157	34.92
1098.574	35.71
1098.991	33.13
1099.409	37.01
1099.826	36.74
1100.243	35.72
1100.66	35.89
1101.077	35.3
1101.494	34.8
1101.91	34.67
1102.327	35.68
1102.744	38.32
1103.161	37.05
1103.578	36.49
1103.994	34.92
1104.411	34.91
1104.828	36.18
1105.245	36.76
1105.661	37.46
1106.078	36.98
1106.494	37.05
1106.911	33.02
1107.328	34.9
1107.744	35.32
1108.161	38.15
1108.577	40.32
1108.993	38.03
1109.41	37.79
1109.826	38.66
1110.242	36.23
1110.659	37.08
1111.075	34.23
1111.491	39.33
1111.908	34.13
1112.324	39.29
1112.74	51.22
1113.156	36.6
1113.572	38.87
1113.988	39.46
1114.404	41.87
1114.82	37.17
1115.236	36.67
1115.652	36.65
1116.068	40.78
1116.484	34.93
1116.9	36.33
1117.316	43.98
1117.732	-1100
1118.147	-500
1118.563	82.35
1118.979	123.08
