Data from JCR0026_White1_Reflection_00002.txt Node
Date: Fri Jul 31 12:09:43 ACST 2020
User: Stacey Dix
Spectrometer: MAYP113282
Scans to average: 1
Trigger mode: 0
Integration Time (sec): 1.000000E-1
Electric dark correction enabled: true
Boxcar width: 0
XAxis mode: Wavelengths
Number of Pixels in Spectrum: 2068
>>>>>Begin Spectral Data<<<<<
198.791	109.09
199.266	112.5
199.74	30
200.215	300
200.69	42.64
201.164	66.39
201.639	106.03
202.114	39.93
202.588	62.99
203.063	66.93
203.537	57.74
204.012	71.77
204.486	56.69
204.961	60.7
205.435	49.66
205.909	58.03
206.384	47.16
206.858	41.91
207.332	54
207.807	23.2
208.281	65.88
208.755	26.12
209.229	48.75
209.703	42.7
210.177	56.09
210.651	61.82
211.126	52.82
211.6	37.8
212.074	45.79
212.548	56.25
213.021	32.55
213.495	52.11
213.969	48.9
214.443	60.83
214.917	50.11
215.391	49.37
215.864	30.25
216.338	30.99
216.812	37.65
217.286	32.68
217.759	42.45
218.233	29.22
218.706	43.97
219.18	27.92
219.654	36.52
220.127	29.74
220.6	21.31
221.074	37.5
221.547	41.3
222.021	39.89
222.494	33.25
222.967	27.02
223.441	28.56
223.914	30.05
224.387	25.69
224.86	24.9
225.334	24.83
225.807	23.13
226.28	19.07
226.753	22.3
227.226	19.21
227.699	23.5
228.172	20.08
228.645	22.57
229.118	19.68
229.591	20.27
230.064	18.7
230.537	18.9
231.01	18.43
231.482	19.76
231.955	15.19
232.428	16.4
232.901	17.48
233.373	17.53
233.846	18.95
234.319	17.12
234.791	15.75
235.264	15.42
235.736	15.59
236.209	15.19
236.681	16.11
237.154	18.21
237.626	15.53
238.099	16.07
238.571	15.17
239.044	16.57
239.516	14.52
239.988	13.49
240.46	14.24
240.933	12.38
241.405	16.39
241.877	14.82
242.349	14.6
242.821	15.26
243.293	15.08
243.765	13.25
244.237	13.73
244.71	14.88
245.181	14.4
245.653	14.71
246.125	13.64
246.597	15.43
247.069	12.7
247.541	14.25
248.013	13.84
248.485	14.83
248.956	13.56
249.428	12.77
249.9	13.34
250.371	13.61
250.843	14.07
251.315	12.38
251.786	12.7
252.258	12.32
252.729	12.9
253.201	13.68
253.672	11.29
254.144	12.64
254.615	11.95
255.086	12.23
255.558	13.12
256.029	12.5
256.5	12.08
256.972	12.13
257.443	11.68
257.914	11.96
258.385	12.11
258.856	11.64
259.327	11.85
259.799	12
260.27	11.84
260.741	11.47
261.212	11.84
261.683	11.83
262.154	11.49
262.624	11.44
263.095	12.21
263.566	11.09
264.037	11.44
264.508	11.31
264.979	11.95
265.449	11.33
265.92	10.97
266.391	11.12
266.861	11.16
267.332	11.55
267.803	11.42
268.273	11.91
268.744	11.34
269.214	11.98
269.685	11.62
270.155	11.52
270.626	11.65
271.096	10.7
271.566	11.69
272.037	11.83
272.507	12.16
272.977	11.51
273.448	11
273.918	11.4
274.388	11.19
274.858	11.11
275.328	10.92
275.798	12
276.268	11.79
276.738	11.01
277.208	10.84
277.678	10.67
278.148	12.14
278.618	11.24
279.088	10.57
279.558	10.57
280.028	10.23
280.498	10.65
280.968	10.68
281.437	11.69
281.907	10.32
282.377	11.5
282.847	9.97
283.316	9.9
283.786	11.41
284.255	10.84
284.725	11.32
285.194	10.74
285.664	10.98
286.133	9.92
286.603	10.05
287.072	10.69
287.542	10.55
288.011	10.46
288.48	10.47
288.95	10.46
289.419	10.73
289.888	9.68
290.357	10.93
290.827	10.07
291.296	9.91
291.765	9.79
292.234	11.29
292.703	9.97
293.172	11.52
293.641	10.97
294.11	11.51
294.579	10.73
295.048	11.09
295.517	10.99
295.986	12.28
296.455	11.92
296.923	11.42
297.392	10.14
297.861	11.08
298.33	10.97
298.798	11.62
299.267	11.74
299.736	11.69
300.204	11.66
300.673	11.68
301.141	10.26
301.61	11.42
302.079	10.72
302.547	10.88
303.015	12.08
303.484	11.54
303.952	12.64
304.421	12.49
304.889	11.59
305.357	12.6
305.825	12.05
306.294	12.9
306.762	12.06
307.23	11.93
307.698	13.07
308.166	12.13
308.634	12.52
309.103	12.58
309.571	12.97
310.039	12.56
310.507	13.75
310.975	13.26
311.442	13.21
311.91	12.36
312.378	13.8
312.846	13.11
313.314	13.05
313.782	12.45
314.249	13.91
314.717	13.12
315.185	13.53
315.652	13.39
316.12	13.68
316.588	12.6
317.055	14.33
317.523	13.99
317.99	13.86
318.458	13.25
318.925	14.46
319.393	14.06
319.86	13.96
320.328	14.08
320.795	14.39
321.262	13.85
321.73	14.08
322.197	14.24
322.664	14.5
323.131	15.9
323.598	16.23
324.066	14.4
324.533	15.72
325	16.4
325.467	15.72
325.934	16.72
326.401	16.44
326.868	16.42
327.335	17.04
327.802	17.81
328.269	17.57
328.735	18.47
329.202	19.46
329.669	19.44
330.136	19.81
330.603	19.65
331.069	20.89
331.536	20.44
332.003	21.25
332.469	21.43
332.936	21.7
333.402	22.93
333.869	22.23
334.336	23.57
334.802	23.25
335.268	23.4
335.735	24.22
336.201	23.8
336.668	23.51
337.134	22.91
337.6	22.67
338.067	23.11
338.533	24.51
338.999	22.48
339.465	24.76
339.931	23.59
340.398	24.07
340.864	23.37
341.33	24
341.796	24.53
342.262	25.18
342.728	24.74
343.194	24.87
343.66	22.54
344.126	23.71
344.592	24.05
345.057	25.05
345.523	22.74
345.989	25.09
346.455	24.72
346.921	25.06
347.386	23.92
347.852	23.82
348.318	22.31
348.783	25.36
349.249	25.01
349.714	23.71
350.18	23.76
350.645	24.73
351.111	23.84
351.576	23.99
352.042	25.73
352.507	25.28
352.973	24.19
353.438	24.09
353.903	25.06
354.369	23.98
354.834	24.44
355.299	25.87
355.764	23.55
356.229	24.26
356.695	25.07
357.16	23.43
357.625	24.2
358.09	24.04
358.555	24.35
359.02	23.93
359.485	25.5
359.95	24.24
360.415	24.11
360.879	25.94
361.344	25.67
361.809	26.22
362.274	24.24
362.739	25.89
363.203	24.53
363.668	23.16
364.133	24.44
364.597	26.18
365.062	23.91
365.527	23.88
365.991	25.64
366.456	24.18
366.92	26.12
367.385	25.02
367.849	25.58
368.314	24.45
368.778	24.84
369.242	26.96
369.707	25.51
370.171	25.47
370.635	25.11
371.1	25.15
371.564	24.87
372.028	25.93
372.492	25.66
372.956	24.9
373.42	24.86
373.884	25.14
374.348	25.8
374.812	25.29
375.276	25.85
375.74	25.55
376.204	24.62
376.668	23.62
377.132	24.86
377.596	22.53
378.06	25.11
378.524	23.41
378.987	25.5
379.451	24.7
379.915	24.51
380.378	24.27
380.842	24.14
381.306	24.45
381.769	24.81
382.233	25.11
382.696	24.37
383.16	24.69
383.623	22.44
384.087	24.38
384.55	24.65
385.014	23.29
385.477	23.54
385.94	24.48
386.404	24.73
386.867	24.65
387.33	23.81
387.793	24.24
388.256	22.89
388.72	23.84
389.183	23.65
389.646	23.23
390.109	23.62
390.572	24.15
391.035	23.01
391.498	23.42
391.961	23.42
392.424	23.09
392.887	23.59
393.35	23.5
393.812	23.17
394.275	21.75
394.738	23.71
395.201	22.27
395.664	22.31
396.126	23.4
396.589	22.8
397.052	22.37
397.514	22.04
397.977	22.72
398.439	22.04
398.902	22.46
399.364	22.15
399.827	22.44
400.289	22.61
400.752	21.11
401.214	21.96
401.676	21.12
402.139	21.68
402.601	20.76
403.063	21.7
403.525	21.6
403.988	21.03
404.45	20.25
404.912	20.86
405.374	21.44
405.836	20.07
406.298	20.6
406.76	20.03
407.222	19.85
407.684	20.21
408.146	20.64
408.608	21.49
409.07	20.69
409.532	19.56
409.994	20.29
410.456	20.33
410.917	20.66
411.379	20.38
411.841	20.37
412.303	20.97
412.764	21.11
413.226	19.58
413.687	21.07
414.149	20.21
414.611	20.17
415.072	19.67
415.534	20.21
415.995	20.3
416.457	19.9
416.918	20.2
417.379	20.02
417.841	19.36
418.302	20.34
418.763	20.49
419.225	20.76
419.686	20.83
420.147	20.12
420.608	21.13
421.069	21.59
421.53	20.77
421.991	20.26
422.453	21.23
422.914	21.39
423.375	21.74
423.836	20.24
424.297	20.48
424.757	21.59
425.218	20.08
425.679	22.23
426.14	20.47
426.601	21.21
427.062	23.32
427.522	20.31
427.983	21.29
428.444	22.34
428.904	22.63
429.365	22.02
429.826	20.91
430.286	22.81
430.747	22.83
431.207	22.89
431.668	24.07
432.128	23.88
432.589	22.64
433.049	22.17
433.509	21.23
433.97	22.72
434.43	21.49
434.89	23.1
435.351	23.32
435.811	24.96
436.271	22.7
436.731	24.85
437.191	23.32
437.651	24.61
438.112	23.4
438.572	23.49
439.032	22.74
439.492	23.61
439.952	24.1
440.412	25.01
440.871	25.14
441.331	24.63
441.791	24.58
442.251	23.12
442.711	22.11
443.171	23.79
443.63	23.4
444.09	24.93
444.55	24.24
445.009	25.53
445.469	23.24
445.929	24.19
446.388	23.69
446.848	23.68
447.307	24.77
447.767	24.27
448.226	24.74
448.686	24.68
449.145	24
449.604	25.69
450.064	25.51
450.523	26.12
450.982	24.66
451.442	24.42
451.901	27.31
452.36	24.55
452.819	25.07
453.278	24.7
453.737	26.29
454.197	26.11
454.656	25.57
455.115	25.86
455.574	27.53
456.033	26.27
456.492	27.18
456.95	24.69
457.409	26.73
457.868	23.59
458.327	29.61
458.786	27.52
459.245	28.87
459.703	24.8
460.162	25.78
460.621	27.85
461.079	26.83
461.538	24.67
461.997	26.53
462.455	25.57
462.914	27.94
463.372	26.73
463.831	25.82
464.289	28.79
464.748	28.2
465.206	28.04
465.664	25.81
466.123	26.73
466.581	26.55
467.039	27.65
467.497	24.96
467.956	27.91
468.414	30.57
468.872	26.15
469.33	28.4
469.788	26.41
470.246	30.78
470.704	27.99
471.162	27.09
471.62	30.84
472.078	29.23
472.536	28.17
472.994	27.08
473.452	27.07
473.91	29.58
474.368	27.86
474.826	30.4
475.283	29.53
475.741	29.06
476.199	28.7
476.656	31.53
477.114	29.16
477.572	30.14
478.029	30.89
478.487	31.59
478.944	30.37
479.402	31.53
479.859	29.63
480.317	30.78
480.774	31.57
481.232	31.79
481.689	30.69
482.146	31.32
482.604	32.32
483.061	31.06
483.518	32.19
483.975	30.93
484.433	32.73
484.89	32.45
485.347	30.21
485.804	33.58
486.261	33.94
486.718	34.44
487.175	32.53
487.632	30.16
488.089	33.01
488.546	32.84
489.003	31.57
489.46	32.17
489.917	34.22
490.373	31.23
490.83	32.9
491.287	35.16
491.744	31.01
492.2	32.91
492.657	31.54
493.114	32.83
493.57	32.82
494.027	35.06
494.484	33.17
494.94	33.58
495.397	33.15
495.853	34.45
496.31	33.34
496.766	35.72
497.222	31.83
497.679	31.14
498.135	34.94
498.591	33.62
499.048	33.25
499.504	34.65
499.96	34.94
500.416	34.08
500.872	32.07
501.329	35.31
501.785	32.95
502.241	32.82
502.697	33.28
503.153	35.84
503.609	33.57
504.065	34.17
504.521	34.21
504.977	36.79
505.432	33.08
505.888	33.96
506.344	32.8
506.8	34.24
507.256	34.41
507.711	33.28
508.167	35.36
508.623	33.51
509.078	35.65
509.534	33.32
509.99	35.03
510.445	34.32
510.901	33.21
511.356	33.81
511.812	36.17
512.267	33.59
512.722	34.17
513.178	34.27
513.633	34.64
514.089	34.4
514.544	35.96
514.999	33.99
515.454	34.85
515.91	33.81
516.365	35.79
516.82	34.6
517.275	34.64
517.73	34.64
518.185	33.86
518.64	34.11
519.095	33.17
519.55	32.44
520.005	34.06
520.46	34.33
520.915	34.04
521.37	35.58
521.825	34.4
522.28	34.02
522.734	34.64
523.189	34.97
523.644	32.9
524.099	36.45
524.553	33.97
525.008	34.41
525.462	34.93
525.917	34.25
526.372	33.52
526.826	34.37
527.281	35.61
527.735	32.99
528.19	34.35
528.644	34.34
529.098	34.56
529.553	34.8
530.007	34.72
530.461	32.68
530.916	32.88
531.37	32.76
531.824	34.7
532.278	33.15
532.732	32.18
533.186	33.25
533.641	33.32
534.095	34.89
534.549	33.41
535.003	34.33
535.457	33.78
535.911	35.66
536.365	35.95
536.818	33.6
537.272	35.07
537.726	32.5
538.18	33.79
538.634	32.44
539.087	35.32
539.541	34.75
539.995	34.21
540.449	35.26
540.902	33.68
541.356	33.16
541.809	32.01
542.263	33.55
542.716	34.04
543.17	33.3
543.623	33.85
544.077	34.66
544.53	32.75
544.984	34.94
545.437	34.03
545.89	34.89
546.344	32.76
546.797	34.22
547.25	35.06
547.703	34.55
548.157	34.03
548.61	35.68
549.063	35.99
549.516	35.05
549.969	36.41
550.422	35.06
550.875	35.46
551.328	37.1
551.781	35.18
552.234	37.29
552.687	33.81
553.14	35.06
553.592	31.71
554.045	35.15
554.498	35.14
554.951	35.46
555.404	33.84
555.856	36.41
556.309	35.74
556.762	34.47
557.214	34.16
557.667	36.5
558.119	35.85
558.572	35.42
559.024	36.92
559.477	34.25
559.929	35.96
560.382	35.45
560.834	36.23
561.286	35.71
561.739	35.37
562.191	34.94
562.643	35.17
563.095	37.06
563.548	35.07
564	34.93
564.452	35.98
564.904	34.59
565.356	35.8
565.808	36.36
566.26	34.46
566.712	35.78
567.164	37.1
567.616	35.24
568.068	36.45
568.52	34.81
568.972	34.06
569.424	34.19
569.876	35.45
570.327	36.07
570.779	34.71
571.231	36.21
571.682	35.64
572.134	34.93
572.586	35.23
573.037	32.97
573.489	35.05
573.941	35.79
574.392	34.55
574.844	35.82
575.295	35.66
575.746	34.81
576.198	34.51
576.649	34.69
577.101	33.98
577.552	35.21
578.003	33.49
578.454	35.14
578.906	35.62
579.357	36.45
579.808	36.44
580.259	34.54
580.71	36.81
581.161	35.85
581.612	36.67
582.064	35.49
582.515	36.27
582.965	36.14
583.416	35.88
583.867	35.5
584.318	35.72
584.769	36.74
585.22	35.97
585.671	36.05
586.122	37.37
586.572	36.69
587.023	37.22
587.474	36.23
587.924	38.18
588.375	36.31
588.826	36.44
589.276	37.43
589.727	35.5
590.177	36.94
590.628	37.01
591.078	37.48
591.529	37.74
591.979	37.08
592.429	38.58
592.88	38.7
593.33	37.68
593.78	37.76
594.231	37.79
594.681	36.6
595.131	37.06
595.581	39.08
596.031	37.21
596.481	37.91
596.932	38.33
597.382	37.33
597.832	36.87
598.282	37.49
598.732	39.85
599.182	38.17
599.632	37.45
600.081	36.96
600.531	38.95
600.981	39.97
601.431	38.6
601.881	38.8
602.33	38.84
602.78	40.21
603.23	37.75
603.679	38.49
604.129	37.52
604.579	38.73
605.028	38.16
605.478	37.97
605.927	37.14
606.377	38.32
606.826	37.27
607.276	39
607.725	38.21
608.175	38.31
608.624	38.04
609.073	38.29
609.522	39.01
609.972	37.59
610.421	39.52
610.87	38.41
611.319	38.16
611.768	39.76
612.218	38.31
612.667	39.76
613.116	38.01
613.565	39.42
614.014	37.23
614.463	37.76
614.912	38.44
615.361	38.65
615.81	37.62
616.258	39.05
616.707	38.11
617.156	38.83
617.605	38.11
618.054	39.65
618.502	38.94
618.951	39.65
619.4	38.31
619.848	39.33
620.297	38.72
620.745	41.1
621.194	38.46
621.642	39.13
622.091	38.17
622.539	38.32
622.988	38.2
623.436	39.57
623.885	39.63
624.333	38.99
624.781	39.87
625.23	40.11
625.678	39.92
626.126	39.45
626.574	38.21
627.022	38.52
627.471	39.33
627.919	39.42
628.367	39.81
628.815	39.53
629.263	39.42
629.711	38.38
630.159	39.44
630.607	38.7
631.055	38.53
631.503	39.46
631.95	39.01
632.398	38.75
632.846	39.97
633.294	38.66
633.742	39.25
634.189	39.82
634.637	40.01
635.085	39.63
635.532	39.27
635.98	39.51
636.427	38.58
636.875	40.36
637.323	39.12
637.77	39.42
638.217	40.99
638.665	39.48
639.112	39.36
639.56	38.48
640.007	39.41
640.454	39.52
640.902	40.15
641.349	39.63
641.796	38.15
642.243	39.56
642.69	39.16
643.138	39.34
643.585	39.5
644.032	39.84
644.479	38.8
644.926	41.24
645.373	39.18
645.82	40.9
646.267	38.77
646.714	39.51
647.161	38.99
647.607	39.14
648.054	38.32
648.501	40.72
648.948	40.34
649.395	40.06
649.841	39.54
650.288	40.17
650.735	39.5
651.181	39.98
651.628	40.33
652.075	39.71
652.521	39.28
652.968	39.42
653.414	39.66
653.861	40.03
654.307	41.32
654.753	40.23
655.2	40.58
655.646	39.04
656.092	41.52
656.539	39.79
656.985	40
657.431	40.87
657.877	39.52
658.324	40.27
658.77	41.74
659.216	39.41
659.662	40.31
660.108	40.66
660.554	39.37
661	40.29
661.446	40.88
661.892	40.4
662.338	39.49
662.784	41.04
663.23	41.22
663.675	39.65
664.121	41.13
664.567	41.42
665.013	40.13
665.458	40.26
665.904	40.76
666.35	39.53
666.795	40.6
667.241	41.15
667.687	41.2
668.132	40.27
668.578	41
669.023	41.53
669.469	39.93
669.914	41.26
670.359	40.72
670.805	40.58
671.25	40.58
671.695	40.72
672.141	41.22
672.586	41.32
673.031	41.74
673.476	41.63
673.922	40.85
674.367	41.82
674.812	40.25
675.257	41.31
675.702	41.3
676.147	41.44
676.592	40.78
677.037	40.89
677.482	42.21
677.927	40.99
678.372	41.57
678.817	42.03
679.261	41.53
679.706	41.66
680.151	41.11
680.596	40.57
681.04	41.03
681.485	41.57
681.93	40.94
682.374	42.11
682.819	42.18
683.264	41.67
683.708	41.91
684.153	40.72
684.597	41.62
685.042	41.72
685.486	41.33
685.93	41.95
686.375	40.94
686.819	41
687.263	42.47
687.708	41.2
688.152	40.4
688.596	41.75
689.04	41.83
689.485	41.7
689.929	41.92
690.373	41.37
690.817	41.79
691.261	41.48
691.705	42.73
692.149	41.01
692.593	41.39
693.037	41.41
693.481	41.28
693.925	42.38
694.369	41.84
694.812	41.32
695.256	41.81
695.7	42.24
696.144	42.36
696.587	40.75
697.031	41.85
697.475	41.36
697.918	41.82
698.362	42.54
698.806	42.49
699.249	41.95
699.693	41.37
700.136	42.31
700.58	42.29
701.023	41.8
701.466	41.85
701.91	42.48
702.353	42.57
702.796	41.84
703.24	41.5
703.683	41.75
704.126	42.67
704.569	41.98
705.013	42.02
705.456	42.81
705.899	40.93
706.342	42.56
706.785	42.49
707.228	43.76
707.671	42.9
708.114	42.19
708.557	41.87
709	42.44
709.443	41.78
709.886	42.06
710.328	42.24
710.771	41.86
711.214	42.55
711.657	42.3
712.099	42.19
712.542	42.73
712.985	42.24
713.427	42.84
713.87	42.84
714.313	42.47
714.755	42.36
715.198	41.99
715.64	42.32
716.083	41.89
716.525	42.36
716.967	42.13
717.41	42.47
717.852	41.88
718.295	42.37
718.737	42.73
719.179	43.35
719.621	42.32
720.063	42.95
720.506	42.96
720.948	42.9
721.39	42.76
721.832	42.87
722.274	42.15
722.716	42.96
723.158	42.82
723.6	42.95
724.042	42.5
724.484	41.71
724.926	42.34
725.368	42.27
725.81	43.07
726.251	42.46
726.693	42.76
727.135	43.51
727.577	42.91
728.018	42.97
728.46	42.8
728.902	42.18
729.343	42.46
729.785	43.12
730.226	43.19
730.668	42.51
731.109	42.63
731.551	42.98
731.992	43.24
732.434	44.14
732.875	43.41
733.316	44.84
733.758	43
734.199	44.02
734.64	42.32
735.081	44.29
735.523	43.6
735.964	44.43
736.405	42.92
736.846	44.06
737.287	42.95
737.728	43.53
738.169	43.18
738.61	44.01
739.051	43.59
739.492	43.81
739.933	43.61
740.374	43.5
740.815	43
741.256	43.84
741.696	44.47
742.137	42.96
742.578	44.36
743.019	43.19
743.459	43.23
743.9	43.32
744.341	43.62
744.781	43.75
745.222	43.85
745.662	43.03
746.103	43.56
746.543	43.57
746.984	43.74
747.424	43.43
747.865	43.77
748.305	43.64
748.745	44.47
749.186	43.96
749.626	44.12
750.066	43.3
750.506	44.6
750.947	43.44
751.387	44.39
751.827	44.14
752.267	44.8
752.707	43.62
753.147	44.29
753.587	44.58
754.027	43.77
754.467	44.24
754.907	44.87
755.347	43.49
755.787	44.42
756.227	44.07
756.667	44.48
757.107	43.2
757.546	44.08
757.986	44.63
758.426	44.58
758.865	44.04
759.305	44.78
759.745	44.58
760.184	44.49
760.624	44.97
761.063	45.64
761.503	44.59
761.943	43.52
762.382	44.28
762.821	44.48
763.261	44.71
763.7	43.93
764.14	44.57
764.579	44.25
765.018	45.4
765.457	43.79
765.897	45.11
766.336	43.41
766.775	45.1
767.214	44.26
767.653	43.9
768.092	44.81
768.531	45.08
768.97	45.24
769.409	44.73
769.848	44.69
770.287	44.53
770.726	45.05
771.165	45.41
771.604	44.43
772.043	44.86
772.482	45.48
772.92	46.13
773.359	44.82
773.798	44.69
774.237	45.08
774.675	45.27
775.114	44.15
775.553	44.92
775.991	44.49
776.43	45.03
776.868	44.59
777.307	44.54
777.745	44.84
778.184	44.58
778.622	45.13
779.06	44.63
779.499	45.54
779.937	44.65
780.375	45.01
780.814	46.08
781.252	45
781.69	45.5
782.128	45.47
782.566	45.49
783.004	44.52
783.443	45.11
783.881	44.89
784.319	45.24
784.757	45.95
785.195	45.3
785.633	45.74
786.071	45.23
786.508	45.51
786.946	45.08
787.384	45.54
787.822	45.7
788.26	45.64
788.697	45.44
789.135	45.02
789.573	46.32
790.011	46.28
790.448	45.48
790.886	46.5
791.323	45.5
791.761	46.09
792.198	46.21
792.636	45.67
793.073	45.88
793.511	46.6
793.948	45.55
794.386	46.53
794.823	45.71
795.26	45.93
795.698	46.02
796.135	45.71
796.572	46.17
797.009	45.84
797.446	46.58
797.884	46.51
798.321	46.43
798.758	45.27
799.195	45.47
799.632	45.19
800.069	46.06
800.506	46.09
800.943	46
801.38	47.04
801.817	46.67
802.254	45.8
802.69	46.02
803.127	46.75
803.564	46.53
804.001	46.52
804.438	46.85
804.874	46.55
805.311	46.53
805.748	46.96
806.184	46.27
806.621	46.49
807.057	46.57
807.494	46.13
807.93	46.34
808.367	46.98
808.803	46.85
809.24	46.89
809.676	47.4
810.112	45.83
810.549	46.76
810.985	46.76
811.421	47.27
811.857	46.83
812.294	46.55
812.73	46.88
813.166	46.73
813.602	46.74
814.038	46.31
814.474	45.71
814.91	46.47
815.346	46.53
815.782	46.19
816.218	46.27
816.654	47.02
817.09	47.26
817.526	46.64
817.962	46.32
818.398	47.71
818.833	47.11
819.269	47.33
819.705	47.07
820.141	47.36
820.576	46.81
821.012	46.86
821.447	46.88
821.883	47.83
822.319	46.44
822.754	47.1
823.19	47.44
823.625	47.2
824.061	47.42
824.496	46.94
824.931	47.98
825.367	47.51
825.802	47.27
826.237	47.22
826.673	47.66
827.108	47.42
827.543	47.26
827.978	47.73
828.413	47.57
828.849	46.83
829.284	47.53
829.719	46.96
830.154	48.08
830.589	47.41
831.024	47.54
831.459	47.26
831.894	47.06
832.329	47.99
832.763	47.68
833.198	47.92
833.633	47.77
834.068	47.65
834.503	48.52
834.937	48.21
835.372	48.15
835.807	47.61
836.241	48
836.676	47.78
837.111	48
837.545	47.75
837.98	47.9
838.414	47.41
838.849	48.25
839.283	48.09
839.717	47.54
840.152	47.85
840.586	48.34
841.021	47.63
841.455	48
841.889	47.72
842.323	48.2
842.758	48.3
843.192	47.46
843.626	47.74
844.06	48.24
844.494	48.31
844.928	48.04
845.362	48.37
845.796	48.02
846.23	49.07
846.664	48.07
847.098	48
847.532	48.84
847.966	48.17
848.4	48.16
848.834	49.06
849.267	48.56
849.701	48.26
850.135	48.29
850.569	48.18
851.002	48.49
851.436	48.33
851.87	48.37
852.303	48.06
852.737	48.29
853.17	48.42
853.604	49.07
854.037	48.93
854.471	49.06
854.904	48.68
855.337	48.99
855.771	48.89
856.204	49.34
856.637	49.2
857.071	49.63
857.504	48.81
857.937	48.36
858.37	48.22
858.804	48.8
859.237	48.73
859.67	48.42
860.103	48.36
860.536	49
860.969	49.18
861.402	49.16
861.835	49.41
862.268	48.74
862.701	48.8
863.134	49.21
863.566	48.84
863.999	49.2
864.432	48.91
864.865	48.89
865.298	49.44
865.73	48.83
866.163	48.72
866.596	49.29
867.028	49.48
867.461	50.13
867.893	48.67
868.326	48.78
868.758	49.31
869.191	49.57
869.623	49.3
870.056	48.93
870.488	49.24
870.92	49.76
871.353	48.57
871.785	49.62
872.217	49.61
872.65	49.06
873.082	49.99
873.514	49.63
873.946	49.33
874.378	50.24
874.81	49.37
875.243	48.78
875.675	49.49
876.107	49.32
876.539	50.35
876.971	49.54
877.403	49.98
877.834	49.76
878.266	50.49
878.698	49.74
879.13	50.26
879.562	50.51
879.994	50.11
880.425	50.43
880.857	50.78
881.289	50.44
881.72	50.08
882.152	50.41
882.584	49.9
883.015	49.82
883.447	50.18
883.878	50.24
884.31	50.2
884.741	50.31
885.173	50.3
885.604	50.12
886.035	49.88
886.467	49.96
886.898	49.96
887.329	50.47
887.76	49.79
888.192	50.68
888.623	50.77
889.054	49.98
889.485	50.22
889.916	50.27
890.347	51.05
890.778	50.44
891.209	50.68
891.64	50.14
892.071	50.39
892.502	50.63
892.933	50.58
893.364	51.24
893.795	51.18
894.226	50.22
894.657	50.1
895.087	51.16
895.518	51.01
895.949	51.12
896.38	50.39
896.81	50.19
897.241	51.13
897.671	50.38
898.102	51.13
898.533	51.15
898.963	50.44
899.394	50.91
899.824	51.08
900.254	50.67
900.685	51.45
901.115	50.59
901.546	51.66
901.976	51.24
902.406	51.13
902.836	51.41
903.267	50.8
903.697	51.29
904.127	50.62
904.557	51.2
904.987	51.24
905.417	51.5
905.847	51.45
906.277	51.53
906.707	51.38
907.137	51.33
907.567	51.41
907.997	51.66
908.427	51.44
908.857	51.4
909.287	51.39
909.717	50.91
910.146	51.4
910.576	51.84
911.006	51.21
911.436	51.69
911.865	51.2
912.295	51.68
912.724	51.92
913.154	51.95
913.584	51.45
914.013	52.37
914.443	52
914.872	51.84
915.302	52.05
915.731	51.55
916.16	51.63
916.59	52.13
917.019	51.9
917.448	51.81
917.878	51.59
918.307	51.56
918.736	52.12
919.165	52.14
919.594	52.38
920.023	51.91
920.452	52.69
920.882	52.75
921.311	52.56
921.74	52.25
922.169	52.14
922.597	51.63
923.026	51.96
923.455	52.57
923.884	52.02
924.313	52.26
924.742	51.83
925.171	52.09
925.599	52.04
926.028	53.09
926.457	52.71
926.885	52.25
927.314	52.97
927.743	52.55
928.171	51.56
928.6	52.23
929.028	52.63
929.457	53.11
929.885	52.73
930.314	52.25
930.742	52.28
931.17	52.73
931.599	52.39
932.027	52.04
932.455	52.49
932.884	52.06
933.312	52.06
933.74	52.14
934.168	52.54
934.596	52.68
935.025	52.28
935.453	52.98
935.881	52.44
936.309	51.76
936.737	51.33
937.165	53.04
937.593	52.89
938.021	52.41
938.449	52.41
938.876	51.9
939.304	52.07
939.732	52.31
940.16	53.18
940.588	52.88
941.015	51.66
941.443	52.72
941.871	53.14
942.298	52.53
942.726	52.58
943.154	53.2
943.581	53.34
944.009	52.83
944.436	52.28
944.864	52.46
945.291	53.23
945.718	53.4
946.146	52.8
946.573	53.04
947.001	54.46
947.428	53.2
947.855	54.49
948.282	53.88
948.71	52.9
949.137	53.99
949.564	53.53
949.991	53.03
950.418	53.67
950.845	53.7
951.272	53.06
951.699	54.84
952.126	53.43
952.553	53.69
952.98	53.08
953.407	54.39
953.834	54.54
954.261	54.08
954.688	53.7
955.114	53.6
955.541	53.3
955.968	53.51
956.395	53.84
956.821	54.13
957.248	54.18
957.674	54.16
958.101	54.3
958.528	53.55
958.954	53.92
959.381	53.95
959.807	53.83
960.234	53.7
960.66	53.47
961.086	54.1
961.513	54.16
961.939	54.28
962.365	54.06
962.792	54.19
963.218	54.02
963.644	54.54
964.07	54.07
964.496	54.14
964.923	54.81
965.349	54.2
965.775	54.49
966.201	54.53
966.627	54.73
967.053	54.41
967.479	54.05
967.905	54.43
968.331	54.23
968.756	54.22
969.182	54.23
969.608	53.92
970.034	54.55
970.46	54.96
970.885	54.57
971.311	54.51
971.737	53.83
972.162	54.45
972.588	54.52
973.014	54.73
973.439	54.57
973.865	54.33
974.29	54.8
974.716	54.43
975.141	54.59
975.567	54.69
975.992	54.92
976.417	54.99
976.843	55.21
977.268	55.49
977.693	54.76
978.119	54.78
978.544	55.14
978.969	54.94
979.394	55.4
979.819	54.53
980.244	55.2
980.669	55.85
981.095	55.08
981.52	55.06
981.945	55.12
982.369	54.66
982.794	55
983.219	55.15
983.644	54.61
984.069	55.17
984.494	54.88
984.919	55.07
985.343	55.8
985.768	55.16
986.193	55.42
986.618	55.03
987.042	55.22
987.467	55.35
987.891	55.54
988.316	55.09
988.741	55.57
989.165	55.59
989.59	55.48
990.014	55.55
990.438	55.24
990.863	55.02
991.287	56.09
991.712	55.32
992.136	55.42
992.56	55.64
992.984	56.15
993.409	55.68
993.833	55.14
994.257	55.3
994.681	55.73
995.105	55.95
995.529	55.65
995.953	55.85
996.377	55.83
996.801	55.68
997.225	56.25
997.649	56.11
998.073	55.72
998.497	55.96
998.921	55.53
999.345	56.28
999.769	56.86
1000.192	56.46
1000.616	56.21
1001.04	56.19
1001.464	56.38
1001.887	56.19
1002.311	55.87
1002.734	56.44
1003.158	56.24
1003.582	56.35
1004.005	56.69
1004.429	55.98
1004.852	56.28
1005.275	56.14
1005.699	56.49
1006.122	56.62
1006.546	56.65
1006.969	56.93
1007.392	57.1
1007.815	56.6
1008.239	56.09
1008.662	56.5
1009.085	56.76
1009.508	57
1009.931	56.79
1010.354	56.85
1010.778	57.13
1011.201	57.17
1011.624	57.03
1012.047	56.57
1012.469	57.2
1012.892	57.23
1013.315	56.3
1013.738	57.24
1014.161	57.36
1014.584	56.98
1015.007	56.32
1015.429	56.13
1015.852	56.91
1016.275	56.91
1016.697	57.41
1017.12	56.43
1017.543	56.48
1017.965	56.84
1018.388	57.39
1018.81	57.3
1019.233	55.69
1019.655	57.46
1020.078	57
1020.5	57.63
1020.922	56.81
1021.345	57.25
1021.767	57.22
1022.189	57.11
1022.612	57.32
1023.034	56.93
1023.456	57.35
1023.878	57.4
1024.301	56.89
1024.723	57.07
1025.145	57.14
1025.567	57.26
1025.989	57.11
1026.411	57.3
1026.833	57.17
1027.255	57.07
1027.677	57.42
1028.099	57.92
1028.52	57.45
1028.942	56.84
1029.364	57.02
1029.786	57.58
1030.208	57.13
1030.629	57.59
1031.051	58.17
1031.473	57.59
1031.894	57.69
1032.316	57.57
1032.738	58.55
1033.159	57.38
1033.581	57.48
1034.002	57.42
1034.424	58.14
1034.845	57.21
1035.267	58.09
1035.688	57.37
1036.109	57.84
1036.531	58.59
1036.952	57.26
1037.373	58.01
1037.794	58.17
1038.216	57.46
1038.637	58.53
1039.058	58.47
1039.479	57.62
1039.9	58.33
1040.321	58.71
1040.742	59.01
1041.163	57.68
1041.584	57.75
1042.005	58.5
1042.426	58.56
1042.847	57.92
1043.268	57.66
1043.689	57.98
1044.11	57.79
1044.53	58.63
1044.951	58.39
1045.372	58.23
1045.793	57.92
1046.213	57.86
1046.634	57.38
1047.055	58.67
1047.475	58.37
1047.896	58.21
1048.316	58.67
1048.737	59.33
1049.157	59.37
1049.578	58.52
1049.998	58.14
1050.419	58.48
1050.839	58.33
1051.259	58.06
1051.68	58.52
1052.1	58.96
1052.52	59.11
1052.94	58.83
1053.361	58.7
1053.781	58.4
1054.201	58.36
1054.621	59.09
1055.041	58.5
1055.461	59.11
1055.881	59.65
1056.301	58.6
1056.721	59.18
1057.141	57.97
1057.561	58.63
1057.981	58.51
1058.401	58.38
1058.82	57.98
1059.24	58.75
1059.66	59.54
1060.08	59.58
1060.499	59.04
1060.919	59.62
1061.339	58.52
1061.758	59.96
1062.178	59.1
1062.598	59.04
1063.017	58.65
1063.437	58.8
1063.856	59.25
1064.276	59.82
1064.695	59.54
1065.114	60.48
1065.534	59.44
1065.953	58.49
1066.372	58.87
1066.792	60.12
1067.211	59
1067.63	58.4
1068.049	60.32
1068.469	59.22
1068.888	60.06
1069.307	59.41
1069.726	59.55
1070.145	59.4
1070.564	58.31
1070.983	59.71
1071.402	59.73
1071.821	59.96
1072.24	60.57
1072.659	60.02
1073.078	60.25
1073.496	60.01
1073.915	59.46
1074.334	60.25
1074.753	59.37
1075.171	60.89
1075.59	58.94
1076.009	59.55
1076.427	59.68
1076.846	60.43
1077.265	60.33
1077.683	60.88
1078.102	58.62
1078.52	59.52
1078.939	59.79
1079.357	60.81
1079.776	58.18
1080.194	59.71
1080.612	59.15
1081.031	59.01
1081.449	60.18
1081.867	59.61
1082.285	59.58
1082.704	59.8
1083.122	60.16
1083.54	60.98
1083.958	60.4
1084.376	60.29
1084.794	59.94
1085.212	61.33
1085.63	60.92
1086.048	60.5
1086.466	61.34
1086.884	60.75
1087.302	60.29
1087.72	61
1088.138	59.7
1088.555	60.62
1088.973	59.91
1089.391	61.03
1089.809	59.3
1090.226	60.14
1090.644	59.45
1091.062	60.8
1091.479	60.48
1091.897	61.51
1092.314	60.51
1092.732	60.33
1093.15	60.57
1093.567	62.1
1093.984	59.61
1094.402	61.65
1094.819	59.13
1095.237	58.52
1095.654	59.88
1096.071	60.94
1096.488	60.16
1096.906	62.23
1097.323	61.28
1097.74	60.01
1098.157	60.63
1098.574	61.49
1098.991	60.88
1099.409	59.3
1099.826	60.12
1100.243	61.34
1100.66	60.51
1101.077	61.22
1101.494	61.93
1101.91	59.2
1102.327	60.24
1102.744	60.52
1103.161	60.88
1103.578	60.85
1103.994	61.33
1104.411	60.23
1104.828	60.84
1105.245	59.79
1105.661	59.11
1106.078	61.47
1106.494	60.67
1106.911	60.6
1107.328	58.93
1107.744	61.8
1108.161	60.39
1108.577	61
1108.993	59.45
1109.41	58.41
1109.826	60.77
1110.242	60.32
1110.659	60.68
1111.075	64.8
1111.491	59.97
1111.908	60.95
1112.324	59.16
1112.74	55.13
1113.156	63.12
1113.572	57.16
1113.988	58.46
1114.404	62.4
1114.82	60.56
1115.236	62.34
1115.652	60.72
1116.068	59.17
1116.484	57.22
1116.9	54.85
1117.316	61.2
1117.732	44.12
1118.147	14.63
1118.563	85.71
1118.979	150
