Data from JCR0023_YellowVentral_Reflection_00001.txt Node
Date: Fri Jul 31 11:46:04 ACST 2020
User: Stacey Dix
Spectrometer: MAYP113282
Scans to average: 1
Trigger mode: 0
Integration Time (sec): 1.000000E-1
Electric dark correction enabled: true
Boxcar width: 0
XAxis mode: Wavelengths
Number of Pixels in Spectrum: 2068
>>>>>Begin Spectral Data<<<<<
198.791	-59.09
199.266	143.75
199.74	95
200.215	425
200.69	-3.3
201.164	38.93
201.639	22.84
202.114	25.43
202.588	39.32
203.063	-0.2
203.537	19.87
204.012	28.47
204.486	17.52
204.961	32.49
205.435	21.11
205.909	48.03
206.384	16.89
206.858	-2.39
207.332	35.86
207.807	11.46
208.281	19.09
208.755	26.83
209.229	17.66
209.703	19.04
210.177	36.4
210.651	18.07
211.126	25.18
211.6	9.25
212.074	23.55
212.548	22.69
213.021	16.57
213.495	36.18
213.969	18.92
214.443	29.61
214.917	13.43
215.391	18.86
215.864	8.09
216.338	18.35
216.812	16.9
217.286	19.2
217.759	27.11
218.233	18.7
218.706	7.14
219.18	7.03
219.654	25.48
220.127	13.48
220.6	9.3
221.074	13.12
221.547	23.31
222.021	11.1
222.494	20.19
222.967	18.07
223.441	12.64
223.914	15.79
224.387	13.24
224.86	15.32
225.334	11.11
225.807	11.29
226.28	14.54
226.753	13.03
227.226	12.58
227.699	12.26
228.172	12.13
228.645	16.94
229.118	11.54
229.591	12.75
230.064	12.4
230.537	12.5
231.01	11.84
231.482	10.7
231.955	9.4
232.428	10.79
232.901	11.18
233.373	10.8
233.846	12.34
234.319	9.42
234.791	11.32
235.264	9.06
235.736	10.18
236.209	9.14
236.681	11.81
237.154	10.67
237.626	9.92
238.099	10.33
238.571	10.07
239.044	12.06
239.516	9.46
239.988	10.39
240.46	9.66
240.933	8.74
241.405	10.61
241.877	9.42
242.349	10.55
242.821	9.93
243.293	9.88
243.765	9.9
244.237	10.3
244.71	10.31
245.181	9.75
245.653	9.74
246.125	10.27
246.597	10.07
247.069	8.16
247.541	9.64
248.013	10.37
248.485	8.75
248.956	9.16
249.428	9.29
249.9	9.21
250.371	8.78
250.843	9.86
251.315	9.08
251.786	8.57
252.258	9.51
252.729	8.63
253.201	8.68
253.672	7.12
254.144	8.82
254.615	8.17
255.086	8.2
255.558	8.54
256.029	8.15
256.5	8.09
256.972	7.94
257.443	9.01
257.914	8.8
258.385	8.22
258.856	8.6
259.327	9.22
259.799	8.43
260.27	8.74
260.741	8.18
261.212	7.88
261.683	8.81
262.154	8.38
262.624	8.01
263.095	8.58
263.566	7.98
264.037	8.88
264.508	7.86
264.979	8.14
265.449	8
265.92	8.98
266.391	8.6
266.861	8.84
267.332	8.19
267.803	8.65
268.273	8.3
268.744	8.37
269.214	8.63
269.685	8.15
270.155	8.12
270.626	8.6
271.096	8.43
271.566	7.94
272.037	8.32
272.507	8.9
272.977	7.99
273.448	7.99
273.918	8.06
274.388	7.22
274.858	7.5
275.328	9.16
275.798	7.8
276.268	9.39
276.738	9.05
277.208	9.36
277.678	7.78
278.148	8.04
278.618	8.04
279.088	8.85
279.558	8.24
280.028	7.21
280.498	8.31
280.968	8.33
281.437	7.96
281.907	8.07
282.377	7.75
282.847	7.64
283.316	7.51
283.786	8.13
284.255	7.54
284.725	7.88
285.194	8.29
285.664	8.49
286.133	7.04
286.603	7.71
287.072	8.3
287.542	7.6
288.011	8.02
288.48	7.76
288.95	8.25
289.419	8.2
289.888	7.52
290.357	7.64
290.827	7.26
291.296	8.17
291.765	6.96
292.234	7.7
292.703	6.85
293.172	8.49
293.641	7.99
294.11	7.36
294.579	7.25
295.048	7.61
295.517	7.07
295.986	8.29
296.455	8.68
296.923	8.3
297.392	7.25
297.861	7.85
298.33	7.74
298.798	7.91
299.267	8.65
299.736	8.42
300.204	7.81
300.673	7.64
301.141	7.37
301.61	7.7
302.079	7.3
302.547	7.63
303.015	7.87
303.484	7.37
303.952	8.78
304.421	8
304.889	7.94
305.357	7.95
305.825	7.41
306.294	8.37
306.762	8.26
307.23	8.83
307.698	8.53
308.166	8.64
308.634	7.9
309.103	8.44
309.571	9.46
310.039	8.44
310.507	8.29
310.975	8.83
311.442	7.68
311.91	8.2
312.378	9.23
312.846	8.2
313.314	9.34
313.782	8.49
314.249	8.55
314.717	8.93
315.185	8.31
315.652	8.08
316.12	8.88
316.588	7.71
317.055	9.29
317.523	9.09
317.99	9.28
318.458	8.6
318.925	8.25
319.393	7.76
319.86	9.51
320.328	8.38
320.795	8.11
321.262	9.67
321.73	8.12
322.197	9.69
322.664	8.57
323.131	9.17
323.598	8.92
324.066	9.8
324.533	8.95
325	10.25
325.467	10.01
325.934	9.69
326.401	10.1
326.868	10.11
327.335	10.08
327.802	10.42
328.269	9.99
328.735	10.28
329.202	11.68
329.669	11.79
330.136	10.13
330.603	11.22
331.069	11.03
331.536	11.43
332.003	11.13
332.469	10.9
332.936	10.78
333.402	11.37
333.869	11.16
334.336	11.49
334.802	11.54
335.268	10.98
335.735	11.94
336.201	10.92
336.668	11.73
337.134	10.49
337.6	10.79
338.067	10.99
338.533	11.79
338.999	10.87
339.465	11.36
339.931	10.87
340.398	12.05
340.864	11.65
341.33	10.43
341.796	11.97
342.262	11.27
342.728	10.93
343.194	11.8
343.66	10.72
344.126	11.32
344.592	11.22
345.057	11.28
345.523	10.24
345.989	12
346.455	11.71
346.921	11.65
347.386	12.26
347.852	12.67
348.318	11.29
348.783	11.93
349.249	11.34
349.714	12.09
350.18	11.1
350.645	11.34
351.111	10.15
351.576	11.53
352.042	10.75
352.507	12.38
352.973	10.4
353.438	10.29
353.903	12.63
354.369	11.19
354.834	12.51
355.299	10.63
355.764	12.24
356.229	10.76
356.695	11.14
357.16	11.8
357.625	11.54
358.09	10.07
358.555	11.46
359.02	10.59
359.485	11.38
359.95	11.74
360.415	10.52
360.879	11.35
361.344	11.55
361.809	11.6
362.274	11.5
362.739	12.22
363.203	11.61
363.668	11.24
364.133	12.11
364.597	12.59
365.062	11.07
365.527	11.5
365.991	10.06
366.456	10.7
366.92	10.92
367.385	11.47
367.849	11.88
368.314	11.45
368.778	10.91
369.242	12.3
369.707	12.07
370.171	11.67
370.635	11.14
371.1	11.65
371.564	11.64
372.028	12.01
372.492	11.38
372.956	10.63
373.42	12.48
373.884	10.48
374.348	11.66
374.812	11.7
375.276	11.51
375.74	10.62
376.204	11.79
376.668	12.04
377.132	12.38
377.596	11.89
378.06	11.66
378.524	11.06
378.987	11.86
379.451	11.24
379.915	11.92
380.378	12.23
380.842	11.84
381.306	11.69
381.769	12.22
382.233	11.51
382.696	11.16
383.16	12.32
383.623	11.13
384.087	11.21
384.55	11.27
385.014	11.34
385.477	10.98
385.94	11.95
386.404	11.17
386.867	12.53
387.33	11.39
387.793	11.9
388.256	11.15
388.72	11.1
389.183	11.63
389.646	11.46
390.109	12.32
390.572	12.05
391.035	11.35
391.498	11.36
391.961	11.62
392.424	12.09
392.887	11.97
393.35	10.77
393.812	10.91
394.275	10.01
394.738	10.92
395.201	11.39
395.664	10.87
396.126	11.75
396.589	10.96
397.052	11.16
397.514	11.02
397.977	11.7
398.439	10.97
398.902	11.31
399.364	11.26
399.827	10.59
400.289	12.57
400.752	11.09
401.214	11.55
401.676	10.32
402.139	10.41
402.601	11.61
403.063	9.8
403.525	11.48
403.988	11.65
404.45	10.81
404.912	11.18
405.374	11.24
405.836	10.23
406.298	11.61
406.76	10.23
407.222	9.41
407.684	11.79
408.146	10.98
408.608	11.18
409.07	10.71
409.532	10.13
409.994	10.7
410.456	10.81
410.917	10.36
411.379	10.99
411.841	11.38
412.303	11.59
412.764	11.94
413.226	10.76
413.687	11.02
414.149	10.8
414.611	10.53
415.072	10.01
415.534	10.81
415.995	11.57
416.457	10.61
416.918	10.22
417.379	11.15
417.841	11.21
418.302	11.33
418.763	11.13
419.225	11.62
419.686	11.53
420.147	10.22
420.608	11.88
421.069	11.25
421.53	10.45
421.991	11.13
422.453	11.62
422.914	11.66
423.375	11.19
423.836	10.88
424.297	10.84
424.757	9.81
425.218	9.51
425.679	10.93
426.14	11.42
426.601	10.77
427.062	11.06
427.522	9.84
427.983	11.55
428.444	11.1
428.904	9.94
429.365	11.58
429.826	11.73
430.286	11.85
430.747	12.94
431.207	10.42
431.668	11.72
432.128	13.73
432.589	11.02
433.049	10.82
433.509	9.86
433.97	10.66
434.43	11.36
434.89	10.9
435.351	9.48
435.811	12.22
436.271	10.3
436.731	11.28
437.191	10.69
437.651	12.29
438.112	10.45
438.572	11.62
439.032	9.76
439.492	10.82
439.952	12.43
440.412	9.18
440.871	9.9
441.331	10.96
441.791	11.79
442.251	11.58
442.711	11.34
443.171	10.1
443.63	12.27
444.09	12.58
444.55	11.75
445.009	10.86
445.469	12.49
445.929	12.44
446.388	10.7
446.848	13.24
447.307	11.54
447.767	10.21
448.226	12.47
448.686	11.43
449.145	11.03
449.604	12.32
450.064	12.04
450.523	14.12
450.982	11.9
451.442	12.28
451.901	12.48
452.36	11.83
452.819	11.06
453.278	11.41
453.737	14.09
454.197	11.84
454.656	11.55
455.115	11.21
455.574	13.26
456.033	11.82
456.492	10.69
456.95	12.05
457.409	12.94
457.868	11.5
458.327	12.21
458.786	12.08
459.245	12.04
459.703	12.76
460.162	11.79
460.621	10.95
461.079	13.59
461.538	11.9
461.997	13.51
462.455	12.68
462.914	11.22
463.372	11.07
463.831	11.24
464.289	13.12
464.748	13.16
465.206	12.07
465.664	11.7
466.123	11.07
466.581	11.86
467.039	12.8
467.497	12.01
467.956	13.25
468.414	14.18
468.872	12.19
469.33	12.77
469.788	12.73
470.246	12.83
470.704	11.25
471.162	12
471.62	12.86
472.078	12.59
472.536	11.59
472.994	12.39
473.452	12.72
473.91	13.61
474.368	10.78
474.826	14.17
475.283	14
475.741	12.42
476.199	12.86
476.656	15.72
477.114	15.54
477.572	14.34
478.029	13.84
478.487	12.61
478.944	14.05
479.402	13.22
479.859	13.25
480.317	14.62
480.774	15.15
481.232	15.41
481.689	12.7
482.146	12.73
482.604	14.04
483.061	14.59
483.518	13.95
483.975	14.29
484.433	13.89
484.89	14.14
485.347	13.55
485.804	14.67
486.261	15.31
486.718	15.02
487.175	15.86
487.632	13.42
488.089	13.32
488.546	16.01
489.003	15.53
489.46	14.77
489.917	17.06
490.373	14.75
490.83	16.14
491.287	14.73
491.744	13.51
492.2	15.02
492.657	12.79
493.114	14.26
493.57	12.21
494.027	16.72
494.484	15
494.94	14.25
495.397	15.21
495.853	16.26
496.31	15.6
496.766	16.85
497.222	15.55
497.679	15.31
498.135	17.14
498.591	15.41
499.048	14.77
499.504	16.14
499.96	14.38
500.416	15.92
500.872	14.75
501.329	14.26
501.785	15.5
502.241	14.65
502.697	17.76
503.153	14.68
503.609	18.34
504.065	15.29
504.521	16.23
504.977	17.66
505.432	14.67
505.888	15.7
506.344	15.68
506.8	16.17
507.256	17.99
507.711	15.84
508.167	16.52
508.623	16.77
509.078	16.11
509.534	16.13
509.99	16.49
510.445	16.62
510.901	15.21
511.356	17.49
511.812	15.55
512.267	14.52
512.722	17.18
513.178	15.4
513.633	18.01
514.089	16.76
514.544	17.97
514.999	17.59
515.454	16.23
515.91	17.63
516.365	16.16
516.82	15.59
517.275	17.19
517.73	16.56
518.185	15.42
518.64	16.04
519.095	17.38
519.55	16.52
520.005	16.83
520.46	16.69
520.915	16.56
521.37	15.96
521.825	16.98
522.28	15.51
522.734	16.32
523.189	16.37
523.644	17.52
524.099	17.01
524.553	17.55
525.008	17.78
525.462	17.11
525.917	18.45
526.372	16.4
526.826	18.51
527.281	17.33
527.735	16.34
528.19	17.57
528.644	17.16
529.098	17.02
529.553	16.92
530.007	18.45
530.461	17.92
530.916	18.33
531.37	17.44
531.824	19.24
532.278	16.85
532.732	19.23
533.186	18.08
533.641	17.37
534.095	19.72
534.549	18.25
535.003	18.59
535.457	18.96
535.911	19.57
536.365	19.29
536.818	18.41
537.272	19.74
537.726	17.88
538.18	18.07
538.634	16.76
539.087	18.01
539.541	17.92
539.995	19.11
540.449	18.8
540.902	18.41
541.356	19.02
541.809	18.18
542.263	18.06
542.716	19.03
543.17	17.95
543.623	19.45
544.077	20.11
544.53	21.56
544.984	19.31
545.437	19.61
545.89	19.26
546.344	19.86
546.797	21.47
547.25	22.17
547.703	20.19
548.157	18.32
548.61	20.3
549.063	21.66
549.516	20.73
549.969	21.3
550.422	19.56
550.875	21.93
551.328	21.18
551.781	23.38
552.234	20.63
552.687	21.28
553.14	21.49
553.592	20.34
554.045	19.78
554.498	21.69
554.951	22.56
555.404	21.23
555.856	22.34
556.309	21.68
556.762	22.13
557.214	20.88
557.667	22.33
558.119	23.07
558.572	21.01
559.024	22.89
559.477	22.3
559.929	22.07
560.382	22.56
560.834	22.52
561.286	21.4
561.739	21.29
562.191	22.49
562.643	21.86
563.095	22.34
563.548	22.83
564	21.52
564.452	21.18
564.904	22.23
565.356	22.43
565.808	21.97
566.26	21.85
566.712	23.07
567.164	23.05
567.616	21.75
568.068	24.09
568.52	22.99
568.972	22.08
569.424	22.33
569.876	22.43
570.327	21.89
570.779	22.07
571.231	23.84
571.682	22.86
572.134	23.67
572.586	22.81
573.037	21.5
573.489	22.53
573.941	22.22
574.392	22.52
574.844	23.18
575.295	23.13
575.746	22.97
576.198	22.48
576.649	22.64
577.101	21.91
577.552	23.33
578.003	22.47
578.454	22.48
578.906	21.71
579.357	23.55
579.808	23.49
580.259	22.75
580.71	24.07
581.161	23.71
581.612	22.76
582.064	22.43
582.515	24.15
582.965	24.28
583.416	23.3
583.867	22.89
584.318	23.24
584.769	24.27
585.22	22.92
585.671	23.57
586.122	23.92
586.572	24.29
587.023	24.09
587.474	22.91
587.924	24.89
588.375	23.07
588.826	24.08
589.276	24.1
589.727	24.8
590.177	23.36
590.628	23.94
591.078	22.72
591.529	25.35
591.979	23.33
592.429	24.65
592.88	25.57
593.33	24.97
593.78	24.73
594.231	23.38
594.681	24.7
595.131	24.16
595.581	23.63
596.031	24.23
596.481	24.32
596.932	26.05
597.382	25.03
597.832	24.37
598.282	24.93
598.732	24.73
599.182	24.14
599.632	25.55
600.081	24.42
600.531	25.95
600.981	24.05
601.431	25.08
601.881	25.34
602.33	25.51
602.78	25.08
603.23	25.48
603.679	24.93
604.129	24.13
604.579	26.46
605.028	24.27
605.478	24.18
605.927	25.16
606.377	25.24
606.826	24.37
607.276	24.42
607.725	24.71
608.175	25.25
608.624	24.57
609.073	25.53
609.522	25.25
609.972	24.88
610.421	24.96
610.87	24.23
611.319	25.1
611.768	25.26
612.218	24.84
612.667	26
613.116	25.57
613.565	24.46
614.014	24.15
614.463	25.66
614.912	24.91
615.361	24.72
615.81	24.56
616.258	25.33
616.707	26.15
617.156	25.85
617.605	25.06
618.054	25.24
618.502	24.53
618.951	25.38
619.4	25.08
619.848	24.46
620.297	25.54
620.745	24.91
621.194	24.61
621.642	24.48
622.091	24.42
622.539	24.7
622.988	25.45
623.436	25.12
623.885	25.54
624.333	25.43
624.781	26.15
625.23	25.32
625.678	25.51
626.126	25.89
626.574	24.26
627.022	25.39
627.471	24.48
627.919	24.29
628.367	25.48
628.815	24.74
629.263	25.25
629.711	26.07
630.159	24.91
630.607	24.57
631.055	24.39
631.503	25.74
631.95	26.12
632.398	24.72
632.846	25.51
633.294	25.81
633.742	25.61
634.189	25.73
634.637	25.78
635.085	25.69
635.532	25.14
635.98	25.11
636.427	24.25
636.875	24.14
637.323	24.55
637.77	25.22
638.217	26.23
638.665	25.71
639.112	25.53
639.56	25.06
640.007	26.64
640.454	25.76
640.902	25.52
641.349	25.88
641.796	25.3
642.243	25.99
642.69	26.38
643.138	24.92
643.585	26.21
644.032	25.44
644.479	25.92
644.926	26.76
645.373	25.13
645.82	26.53
646.267	25.74
646.714	25.6
647.161	25.93
647.607	25.17
648.054	26.16
648.501	26.04
648.948	25.98
649.395	25.62
649.841	25.75
650.288	25.78
650.735	25.51
651.181	25.1
651.628	26.04
652.075	26.27
652.521	26.27
652.968	25.47
653.414	26.56
653.861	25.34
654.307	26.67
654.753	25.88
655.2	25.64
655.646	25.61
656.092	26.12
656.539	26.23
656.985	26.34
657.431	26.34
657.877	25.31
658.324	26.11
658.77	27.23
659.216	25.2
659.662	27.03
660.108	26.76
660.554	26.55
661	25.57
661.446	27.45
661.892	25.82
662.338	26.43
662.784	26.27
663.23	26.27
663.675	26.27
664.121	27.27
664.567	26.72
665.013	26.96
665.458	27.13
665.904	26.76
666.35	26.03
666.795	27.43
667.241	26.84
667.687	26.97
668.132	26.65
668.578	27.15
669.023	27.37
669.469	26.14
669.914	27.18
670.359	27.24
670.805	26.57
671.25	26.25
671.695	27.62
672.141	27.36
672.586	27.66
673.031	27.92
673.476	27.44
673.922	27.87
674.367	27.75
674.812	27.27
675.257	27.92
675.702	27.43
676.147	27.86
676.592	27.68
677.037	26.73
677.482	28.08
677.927	26.91
678.372	27.28
678.817	28.35
679.261	27.73
679.706	27.85
680.151	27.45
680.596	27.69
681.04	27.45
681.485	27.17
681.93	27.65
682.374	27.4
682.819	27.94
683.264	27.61
683.708	27.76
684.153	27.77
684.597	28.23
685.042	27.56
685.486	27.99
685.93	27.54
686.375	27.82
686.819	27.23
687.263	27.05
687.708	27.89
688.152	27.5
688.596	28.36
689.04	27.64
689.485	27.3
689.929	27.94
690.373	27.96
690.817	27.81
691.261	27.91
691.705	27.98
692.149	27.95
692.593	28.58
693.037	28.31
693.481	27.7
693.925	27.85
694.369	28.67
694.812	27.9
695.256	28.53
695.7	28.32
696.144	27.87
696.587	28.33
697.031	28.29
697.475	27.99
697.918	27.69
698.362	27.44
698.806	28.04
699.249	28.31
699.693	28.19
700.136	27.43
700.58	27.42
701.023	28.14
701.466	27.6
701.91	28.25
702.353	28.16
702.796	28.26
703.24	27.83
703.683	28.58
704.126	28.05
704.569	27.91
705.013	28.44
705.456	27.71
705.899	27.49
706.342	27.38
706.785	28.48
707.228	28.09
707.671	28.13
708.114	28.86
708.557	28.13
709	28.36
709.443	27.88
709.886	28.31
710.328	28.35
710.771	27.96
711.214	28.31
711.657	28.01
712.099	28.94
712.542	28.68
712.985	27.95
713.427	28.29
713.87	29.08
714.313	28.39
714.755	27.57
715.198	27.94
715.64	28.21
716.083	27.54
716.525	27.35
716.967	28.16
717.41	28.58
717.852	27.85
718.295	28.07
718.737	28.21
719.179	28.67
719.621	28.7
720.063	29.23
720.506	28.45
720.948	27.98
721.39	28.5
721.832	28.65
722.274	28.01
722.716	28.61
723.158	28.12
723.6	28.46
724.042	28.17
724.484	28.61
724.926	28.26
725.368	28.92
725.81	27.63
726.251	28.09
726.693	28
727.135	28.56
727.577	27.87
728.018	27.46
728.46	28.09
728.902	28.29
729.343	28.12
729.785	29.57
730.226	28.37
730.668	28.34
731.109	28.83
731.551	28.53
731.992	27.92
732.434	28.71
732.875	28.42
733.316	28.93
733.758	29.44
734.199	28.7
734.64	29.37
735.081	28.32
735.523	28.75
735.964	29.04
736.405	28.33
736.846	28.2
737.287	28.19
737.728	28.1
738.169	28.92
738.61	28.58
739.051	28.41
739.492	29.26
739.933	28.03
740.374	28.73
740.815	28.35
741.256	29.57
741.696	28.3
742.137	28.43
742.578	28.61
743.019	27.68
743.459	28.8
743.9	28.51
744.341	28.63
744.781	28.27
745.222	28.8
745.662	28.48
746.103	28.19
746.543	27.88
746.984	28.31
747.424	28.12
747.865	29.24
748.305	28.83
748.745	27.69
749.186	28.63
749.626	29.76
750.066	28.63
750.506	28.28
750.947	28.75
751.387	28.38
751.827	28.52
752.267	28.28
752.707	28.59
753.147	28.28
753.587	27.97
754.027	28.79
754.467	28.45
754.907	29.2
755.347	28.99
755.787	28.92
756.227	28.03
756.667	28.52
757.107	28.64
757.546	28.41
757.986	28.27
758.426	28.54
758.865	28.9
759.305	29.28
759.745	28.99
760.184	28.52
760.624	29.45
761.063	27.8
761.503	28.47
761.943	28.33
762.382	28.23
762.821	28.72
763.261	28.29
763.7	28.01
764.14	28.42
764.579	28.3
765.018	29.04
765.457	29.15
765.897	29.22
766.336	29.11
766.775	28.48
767.214	28.71
767.653	28.26
768.092	28.47
768.531	29.34
768.97	29.22
769.409	28.1
769.848	28.54
770.287	28.68
770.726	28.57
771.165	29.08
771.604	28.89
772.043	28.82
772.482	28.82
772.92	29.21
773.359	28.1
773.798	28.81
774.237	28.01
774.675	29.69
775.114	28.32
775.553	29.4
775.991	27.87
776.43	27.8
776.868	28.57
777.307	29.02
777.745	28.55
778.184	28.79
778.622	29.36
779.06	28.69
779.499	29.12
779.937	28.85
780.375	28.35
780.814	28.62
781.252	28.07
781.69	28.99
782.128	29.13
782.566	28.8
783.004	28.5
783.443	28.41
783.881	29.12
784.319	28.81
784.757	29.02
785.195	29.01
785.633	28.65
786.071	28.77
786.508	28.92
786.946	28.99
787.384	28.41
787.822	28.27
788.26	28.8
788.697	28.56
789.135	27.56
789.573	29.02
790.011	28.83
790.448	28.63
790.886	29.37
791.323	28.45
791.761	28.9
792.198	29.26
792.636	29.11
793.073	28.27
793.511	28.63
793.948	28.66
794.386	29.41
794.823	28.52
795.26	28.47
795.698	28.82
796.135	28.96
796.572	28.99
797.009	28.13
797.446	29.03
797.884	29.07
798.321	28.89
798.758	28.71
799.195	29.2
799.632	28.73
800.069	29.01
800.506	29.13
800.943	28.57
801.38	28.74
801.817	28.36
802.254	28.49
802.69	28.94
803.127	28.76
803.564	28.91
804.001	28.91
804.438	29.22
804.874	28.82
805.311	29.23
805.748	28.99
806.184	28.98
806.621	28.93
807.057	29.11
807.494	29.2
807.93	29.28
808.367	28.48
808.803	28.76
809.24	28.65
809.676	29.32
810.112	28.07
810.549	29.26
810.985	28.71
811.421	29.72
811.857	28.68
812.294	28.55
812.73	29.34
813.166	28.66
813.602	28.97
814.038	28.94
814.474	29.2
814.91	29.01
815.346	29.11
815.782	29.14
816.218	29.24
816.654	28.75
817.09	28.84
817.526	28.84
817.962	28.62
818.398	29.22
818.833	28.99
819.269	28.99
819.705	28.91
820.141	28.87
820.576	28.12
821.012	28.95
821.447	28.9
821.883	29.29
822.319	28.91
822.754	28.92
823.19	29.19
823.625	29.21
824.061	29.57
824.496	28.78
824.931	29.18
825.367	28.97
825.802	28.91
826.237	29.14
826.673	29.29
827.108	28.62
827.543	29.25
827.978	28.89
828.413	28.89
828.849	29.02
829.284	28.72
829.719	28.65
830.154	28.71
830.589	29.22
831.024	29.16
831.459	29.21
831.894	28.54
832.329	29.5
832.763	29.3
833.198	29.03
833.633	29.29
834.068	28.74
834.503	28.88
834.937	28.96
835.372	28.95
835.807	29.4
836.241	28.97
836.676	29.14
837.111	29.2
837.545	28.84
837.98	29.01
838.414	29.37
838.849	28.79
839.283	28.91
839.717	28.97
840.152	29.41
840.586	29
841.021	28.79
841.455	29.42
841.889	28.75
842.323	29.43
842.758	28.77
843.192	28.8
843.626	28.4
844.06	28.97
844.494	29.12
844.928	29.35
845.362	29.41
845.796	29.08
846.23	28.95
846.664	28.53
847.098	29.13
847.532	29.52
847.966	28.84
848.4	29.25
848.834	29.26
849.267	29.9
849.701	29.12
850.135	29.1
850.569	29.24
851.002	28.93
851.436	29.01
851.87	28.6
852.303	29.48
852.737	29.67
853.17	28.57
853.604	29.44
854.037	28.35
854.471	28.89
854.904	28.64
855.337	29.4
855.771	29.16
856.204	29.36
856.637	29.13
857.071	29.63
857.504	29.16
857.937	29.14
858.37	29.04
858.804	29.23
859.237	29.7
859.67	29.5
860.103	28.98
860.536	29.25
860.969	29.45
861.402	29.08
861.835	29.35
862.268	29.21
862.701	29.18
863.134	29.25
863.566	29.93
863.999	29.47
864.432	29.32
864.865	29.03
865.298	28.78
865.73	28.52
866.163	29.18
866.596	29.05
867.028	28.77
867.461	29.21
867.893	28.8
868.326	29.05
868.758	29.29
869.191	28.88
869.623	28.9
870.056	29.1
870.488	29.21
870.92	29.4
871.353	28.45
871.785	28.85
872.217	29.48
872.65	29.18
873.082	29.5
873.514	28.94
873.946	28.98
874.378	29.93
874.81	29.19
875.243	28.92
875.675	29.34
876.107	28.95
876.539	29.08
876.971	29.36
877.403	28.97
877.834	29.08
878.266	29.22
878.698	29.46
879.13	28.35
879.562	29.32
879.994	29.57
880.425	29.29
880.857	28.97
881.289	28.91
881.72	29
882.152	29.17
882.584	29.2
883.015	29.16
883.447	28.96
883.878	29.49
884.31	29.42
884.741	29.4
885.173	29.38
885.604	29.59
886.035	29.79
886.467	29.71
886.898	29.2
887.329	29.31
887.76	29.08
888.192	29.64
888.623	29.44
889.054	29.2
889.485	29.38
889.916	29.05
890.347	29.52
890.778	29.46
891.209	28.85
891.64	29.16
892.071	29.54
892.502	29.6
892.933	29.59
893.364	29.38
893.795	29.11
894.226	29.15
894.657	29.43
895.087	29.15
895.518	29.46
895.949	29.03
896.38	29.29
896.81	29.34
897.241	29.71
897.671	29.14
898.102	29.42
898.533	29.17
898.963	29.36
899.394	29.63
899.824	29.4
900.254	29.38
900.685	29.28
901.115	29.11
901.546	29.59
901.976	29.07
902.406	28.99
902.836	29.39
903.267	29.04
903.697	29.37
904.127	29.31
904.557	28.88
904.987	29.29
905.417	29.61
905.847	29.62
906.277	29.19
906.707	29.39
907.137	30.01
907.567	29.43
907.997	29.21
908.427	29.33
908.857	29.48
909.287	29.6
909.717	29.48
910.146	29.39
910.576	29.44
911.006	29.13
911.436	29.43
911.865	28.99
912.295	29.08
912.724	29.67
913.154	29.5
913.584	29.41
914.013	29.73
914.443	29.44
914.872	29.77
915.302	29.07
915.731	29.65
916.16	29.4
916.59	29.84
917.019	29.76
917.448	29.12
917.878	29.3
918.307	29.05
918.736	29.32
919.165	29.2
919.594	29.21
920.023	29.08
920.452	29.71
920.882	30.05
921.311	29.11
921.74	29.38
922.169	29.66
922.597	29.41
923.026	29.26
923.455	29.41
923.884	29.74
924.313	29.41
924.742	28.99
925.171	29.46
925.599	29.46
926.028	29.96
926.457	29.83
926.885	29.43
927.314	29.47
927.743	29.91
928.171	29.28
928.6	29.17
929.028	29.5
929.457	30.07
929.885	29.18
930.314	29.63
930.742	29.01
931.17	29.67
931.599	29.04
932.027	29.38
932.455	29.08
932.884	29.53
933.312	29.29
933.74	29.47
934.168	29.56
934.596	29.11
935.025	29.79
935.453	29.56
935.881	29.53
936.309	29.18
936.737	28.78
937.165	29.89
937.593	30.04
938.021	29.01
938.449	29.18
938.876	28.64
939.304	29.09
939.732	29.28
940.16	29.51
940.588	28.93
941.015	29.04
941.443	29.2
941.871	29.82
942.298	29.36
942.726	29.04
943.154	29.22
943.581	29.74
944.009	29.36
944.436	29.21
944.864	29.12
945.291	29.41
945.718	29.38
946.146	28.88
946.573	29.39
947.001	29.45
947.428	29.61
947.855	29.47
948.282	29.29
948.71	28.75
949.137	28.67
949.564	29.23
949.991	29.09
950.418	28.88
950.845	29.32
951.272	29.57
951.699	29.28
952.126	28.99
952.553	29.57
952.98	29.43
953.407	29.26
953.834	29.62
954.261	29.63
954.688	28.7
955.114	29.4
955.541	28.92
955.968	29.38
956.395	29.25
956.821	29.32
957.248	29.15
957.674	28.93
958.101	29.33
958.528	29.41
958.954	29.46
959.381	29.29
959.807	29.64
960.234	29.07
960.66	29.28
961.086	28.75
961.513	29.16
961.939	29.08
962.365	29.27
962.792	29.25
963.218	29.36
963.644	29.6
964.07	28.71
964.496	29
964.923	29.13
965.349	29.23
965.775	29.28
966.201	29.34
966.627	29.37
967.053	29.18
967.479	29.5
967.905	29.31
968.331	28.97
968.756	29.4
969.182	29.07
969.608	28.95
970.034	29.4
970.46	29.53
970.885	29.57
971.311	29.8
971.737	29.32
972.162	29.58
972.588	29.18
973.014	29.59
973.439	29.28
973.865	29.36
974.29	29.35
974.716	29.35
975.141	29.56
975.567	29.19
975.992	29.37
976.417	29.45
976.843	29.99
977.268	29.51
977.693	29.47
978.119	29.24
978.544	29.7
978.969	29.26
979.394	29.81
979.819	29.32
980.244	29.54
980.669	29.57
981.095	29.32
981.52	29.35
981.945	29.1
982.369	29.7
982.794	29.57
983.219	29.42
983.644	29.51
984.069	29.29
984.494	29.49
984.919	29.16
985.343	29.02
985.768	29.34
986.193	29.41
986.618	29.33
987.042	29.41
987.467	29.1
987.891	29.8
988.316	29.31
988.741	29.41
989.165	29.86
989.59	29.74
990.014	29.16
990.438	29.42
990.863	29.39
991.287	29.84
991.712	29.6
992.136	29.55
992.56	29.71
992.984	29.36
993.409	29.29
993.833	29.53
994.257	29.63
994.681	29.3
995.105	29.96
995.529	29.57
995.953	29.73
996.377	29.56
996.801	29.72
997.225	29.66
997.649	29.97
998.073	29.7
998.497	29.74
998.921	29.5
999.345	29.87
999.769	29.91
1000.192	29.64
1000.616	29.63
1001.04	30.02
1001.464	29.71
1001.887	29.31
1002.311	29.68
1002.734	29.89
1003.158	29.9
1003.582	29.94
1004.005	29.85
1004.429	29.62
1004.852	29.61
1005.275	29.52
1005.699	29.41
1006.122	29.52
1006.546	29.63
1006.969	30
1007.392	30.14
1007.815	29.69
1008.239	29.51
1008.662	29.76
1009.085	29.76
1009.508	29.93
1009.931	29.77
1010.354	29.69
1010.778	29.86
1011.201	29.84
1011.624	29.91
1012.047	29.61
1012.469	29.95
1012.892	30.04
1013.315	29.79
1013.738	29.82
1014.161	29.85
1014.584	29.75
1015.007	29.31
1015.429	29.71
1015.852	30.12
1016.275	29.76
1016.697	29.58
1017.12	29.36
1017.543	29.55
1017.965	29.94
1018.388	29.7
1018.81	29.8
1019.233	29.53
1019.655	30
1020.078	30.04
1020.5	30.02
1020.922	29.33
1021.345	30.2
1021.767	30.17
1022.189	29.53
1022.612	30.47
1023.034	29.75
1023.456	30.21
1023.878	29.82
1024.301	30.03
1024.723	30
1025.145	30.18
1025.567	30.43
1025.989	29.95
1026.411	30.07
1026.833	29.71
1027.255	29.86
1027.677	29.61
1028.099	29.71
1028.52	29.93
1028.942	29.98
1029.364	29.71
1029.786	29
1030.208	29.44
1030.629	30.67
1031.051	30.15
1031.473	30.13
1031.894	29.93
1032.316	30.2
1032.738	30.51
1033.159	29.82
1033.581	29.8
1034.002	29.86
1034.424	30.46
1034.845	29.68
1035.267	30.13
1035.688	30.01
1036.109	29.82
1036.531	30
1036.952	30.15
1037.373	30.35
1037.794	30.35
1038.216	29.63
1038.637	29.54
1039.058	30.66
1039.479	29.69
1039.9	30.12
1040.321	30.27
1040.742	30.4
1041.163	29.96
1041.584	29.87
1042.005	30.29
1042.426	29.93
1042.847	29.95
1043.268	29.85
1043.689	29.9
1044.11	29.66
1044.53	30.11
1044.951	30.51
1045.372	29.34
1045.793	30.11
1046.213	30.04
1046.634	29.85
1047.055	30.08
1047.475	30.11
1047.896	29.86
1048.316	30.06
1048.737	30.47
1049.157	30.36
1049.578	29.89
1049.998	30.13
1050.419	30.09
1050.839	29.7
1051.259	30.1
1051.68	30.04
1052.1	30.33
1052.52	30.16
1052.94	30.09
1053.361	29.4
1053.781	29.47
1054.201	30.17
1054.621	30.93
1055.041	29.92
1055.461	30.02
1055.881	30.28
1056.301	29.67
1056.721	29.95
1057.141	30.66
1057.561	30.21
1057.981	29.58
1058.401	29.85
1058.82	30.16
1059.24	30.09
1059.66	30.06
1060.08	30.26
1060.499	30.29
1060.919	30.27
1061.339	29.65
1061.758	30.35
1062.178	30.31
1062.598	30.26
1063.017	30.17
1063.437	29.08
1063.856	29.53
1064.276	30.21
1064.695	29.83
1065.114	30.76
1065.534	30.62
1065.953	30.23
1066.372	30.79
1066.792	30.13
1067.211	29.72
1067.63	30.62
1068.049	30.91
1068.469	29.75
1068.888	29.98
1069.307	29.62
1069.726	30.47
1070.145	30.7
1070.564	30.09
1070.983	31.1
1071.402	30.03
1071.821	29.99
1072.24	30.66
1072.659	29.84
1073.078	30.4
1073.496	31
1073.915	29.56
1074.334	30.46
1074.753	30.05
1075.171	31.08
1075.59	29.24
1076.009	30.61
1076.427	29.9
1076.846	30.46
1077.265	30.32
1077.683	29.54
1078.102	29.97
1078.52	30.92
1078.939	29.42
1079.357	30.14
1079.776	30.03
1080.194	30.28
1080.612	29.64
1081.031	29.16
1081.449	29.78
1081.867	30.48
1082.285	30.14
1082.704	30.41
1083.122	30.05
1083.54	30.9
1083.958	31.48
1084.376	29.41
1084.794	30.33
1085.212	29.67
1085.63	30.32
1086.048	31.23
1086.466	30.14
1086.884	30.96
1087.302	30.03
1087.72	29.46
1088.138	30.16
1088.555	29.63
1088.973	29.25
1089.391	30.79
1089.809	29.7
1090.226	29.85
1090.644	29.15
1091.062	29.73
1091.479	29.46
1091.897	29.84
1092.314	29.37
1092.732	30.3
1093.15	29.25
1093.567	30.83
1093.984	29.41
1094.402	30.3
1094.819	30.05
1095.237	28.66
1095.654	30.38
1096.071	29.57
1096.488	28.71
1096.906	30.87
1097.323	30.39
1097.74	30.85
1098.157	30.46
1098.574	30.35
1098.991	29.14
1099.409	30.02
1099.826	30.14
1100.243	28.22
1100.66	29.25
1101.077	31.04
1101.494	31.23
1101.91	29.61
1102.327	30.25
1102.744	29.81
1103.161	29.42
1103.578	28.67
1103.994	30.14
1104.411	31.17
1104.828	29.25
1105.245	30.8
1105.661	29.8
1106.078	30.81
1106.494	30.91
1106.911	30.88
1107.328	29.8
1107.744	29.78
1108.161	28.74
1108.577	27.89
1108.993	29.15
1109.41	30.38
1109.826	30.26
1110.242	28.56
1110.659	29.42
1111.075	30.05
1111.491	30.01
1111.908	32.18
1112.324	26.96
1112.74	17.08
1113.156	31.34
1113.572	29.69
1113.988	30.01
1114.404	31.24
1114.82	27.07
1115.236	29.18
1115.652	29
1116.068	26.13
1116.484	26.98
1116.9	28.73
1117.316	29.21
1117.732	36.76
1118.147	6.1
1118.563	-35.71
1118.979	106.25
