Data from JCR0005_Black1_Reflection_00003.txt Node
Date: Wed Jul 22 13:59:01 ACST 2020
User: Stacey Dix
Spectrometer: MAYP113282
Scans to average: 1
Trigger mode: 0
Integration Time (sec): 1.000000E-1
Electric dark correction enabled: true
Boxcar width: 0
XAxis mode: Wavelengths
Number of Pixels in Spectrum: 2068
>>>>>Begin Spectral Data<<<<<
198.791	0
199.266	400
199.74	57.14
200.215	-85.71
200.69	-19.78
201.164	31.93
201.639	-1.31
202.114	-19.86
202.588	-2.31
203.063	7.25
203.537	1.13
204.012	21.76
204.486	3.52
204.961	-4.42
205.435	-27.23
205.909	4.57
206.384	-17.04
206.858	-17.56
207.332	2.32
207.807	3.52
208.281	-3.62
208.755	-12.33
209.229	-10.06
209.703	-10.73
210.177	-25.38
210.651	-1.7
211.126	-13.22
211.6	-3.16
212.074	-2.35
212.548	0
213.021	-5.65
213.495	-3.75
213.969	-5.05
214.443	7.07
214.917	-11.6
215.391	-1.11
215.864	-3.79
216.338	-2
216.812	1.57
217.286	11.91
217.759	0
218.233	-2.25
218.706	-2.06
219.18	-7.1
219.654	0
220.127	-12.04
220.6	6.71
221.074	-3.56
221.547	0.41
222.021	-2.96
222.494	3.88
222.967	-3.37
223.441	1.68
223.914	-3.83
224.387	2.09
224.86	2.74
225.334	-4.37
225.807	3.97
226.28	2.04
226.753	0
227.226	-1.83
227.699	1.26
228.172	1
228.645	2.03
229.118	1.7
229.591	3
230.064	1.57
230.537	4.57
231.01	4.43
231.482	3.16
231.955	2.88
232.428	3.1
232.901	3.6
233.373	-0.96
233.846	3.92
234.319	2.37
234.791	2.45
235.264	1.83
235.736	2.01
236.209	3.16
236.681	3.61
237.154	2.95
237.626	3.96
238.099	2.8
238.571	2.56
239.044	2.89
239.516	3.22
239.988	2.22
240.46	2.59
240.933	2.78
241.405	3.56
241.877	3.23
242.349	1.34
242.821	2.93
243.293	2.86
243.765	1.65
244.237	1.79
244.71	2.42
245.181	1.32
245.653	1.48
246.125	1.51
246.597	3.35
247.069	2.36
247.541	1.34
248.013	2.34
248.485	2.77
248.956	2.73
249.428	3.67
249.9	2.86
250.371	2.83
250.843	2.93
251.315	2.17
251.786	3.02
252.258	2.19
252.729	2.79
253.201	2.67
253.672	2.61
254.144	2.55
254.615	3.33
255.086	2.63
255.558	2.48
256.029	2.12
256.5	2.2
256.972	2.89
257.443	2.83
257.914	2.29
258.385	1.69
258.856	2.34
259.327	2
259.799	2.43
260.27	2.32
260.741	3.01
261.212	2.85
261.683	2.09
262.154	2.59
262.624	2.56
263.095	2.1
263.566	2.1
264.037	2.13
264.508	2.12
264.979	2.75
265.449	2.75
265.92	1.89
266.391	1.47
266.861	2.46
267.332	2.16
267.803	2.41
268.273	2.04
268.744	1.96
269.214	1.87
269.685	2.7
270.155	1.81
270.626	2.28
271.096	1.54
271.566	2.66
272.037	1.98
272.507	1.88
272.977	2.46
273.448	1.3
273.918	1.4
274.388	2.36
274.858	2.03
275.328	1.99
275.798	2.85
276.268	1.83
276.738	2.9
277.208	2.3
277.678	2.58
278.148	2.26
278.618	2.32
279.088	2.4
279.558	1.29
280.028	2.86
280.498	1.76
280.968	2.55
281.437	2.67
281.907	2.54
282.377	2.31
282.847	1.98
283.316	2.44
283.786	1.91
284.255	1.12
284.725	2.41
285.194	2.14
285.664	1.62
286.133	1.61
286.603	2.19
287.072	2.22
287.542	1.73
288.011	2.59
288.48	2.2
288.95	2.15
289.419	2.73
289.888	2.46
290.357	2.46
290.827	2.07
291.296	1.88
291.765	2.68
292.234	1.84
292.703	2.09
293.172	1.76
293.641	2.15
294.11	1.77
294.579	2.3
295.048	2.45
295.517	1.57
295.986	1.98
296.455	1.61
296.923	2.39
297.392	2.73
297.861	2.1
298.33	2.26
298.798	2.4
299.267	2.12
299.736	1.49
300.204	1.92
300.673	2.06
301.141	1.79
301.61	2.21
302.079	2.18
302.547	2.32
303.015	1.97
303.484	1.56
303.952	2.37
304.421	2.04
304.889	1.56
305.357	2.32
305.825	1.99
306.294	2.07
306.762	2.38
307.23	1.57
307.698	2.22
308.166	1.68
308.634	2.03
309.103	2.4
309.571	1.63
310.039	2.34
310.507	1.32
310.975	2.08
311.442	2.03
311.91	1.67
312.378	2.05
312.846	1.63
313.314	1.38
313.782	1.15
314.249	1.66
314.717	1.81
315.185	1.93
315.652	2.19
316.12	2.21
316.588	2.25
317.055	2.04
317.523	1.76
317.99	1.82
318.458	2.97
318.925	2.15
319.393	2.76
319.86	2.07
320.328	2.08
320.795	1.69
321.262	1.63
321.73	1.84
322.197	2.39
322.664	1.7
323.131	1.94
323.598	1.34
324.066	0.76
324.533	1.47
325	1.37
325.467	1.3
325.934	1.62
326.401	1.44
326.868	1.81
327.335	1.7
327.802	1.35
328.269	1.94
328.735	1.35
329.202	2
329.669	1.81
330.136	1.59
330.603	0.88
331.069	2.31
331.536	2.26
332.003	2.06
332.469	1.94
332.936	2.54
333.402	1.76
333.869	2.35
334.336	1.65
334.802	2.5
335.268	2.29
335.735	1.41
336.201	1.83
336.668	2.58
337.134	1.35
337.6	0.62
338.067	1.58
338.533	2.2
338.999	1.41
339.465	1.6
339.931	1.64
340.398	1.45
340.864	1.43
341.33	1.91
341.796	1.74
342.262	1.6
342.728	1.68
343.194	1.45
343.66	2.09
344.126	0.96
344.592	1.3
345.057	1.3
345.523	1.7
345.989	0.83
346.455	1.25
346.921	2.58
347.386	1.66
347.852	1.57
348.318	2.41
348.783	1.51
349.249	1.34
349.714	1.31
350.18	1.14
350.645	1.62
351.111	1.07
351.576	1.14
352.042	2.23
352.507	1.8
352.973	2.03
353.438	2.19
353.903	1.66
354.369	1.84
354.834	1.72
355.299	1.06
355.764	1.94
356.229	1.07
356.695	1.5
357.16	1.76
357.625	0.97
358.09	1.4
358.555	0.9
359.02	0.92
359.485	0.72
359.95	1.63
360.415	1.53
360.879	0.93
361.344	0.84
361.809	1.36
362.274	1.68
362.739	1.39
363.203	1.05
363.668	0.75
364.133	2.02
364.597	1.55
365.062	0.99
365.527	2.17
365.991	0.47
366.456	2.03
366.92	1.71
367.385	2.11
367.849	0.72
368.314	1.27
368.778	1.41
369.242	0.79
369.707	1.56
370.171	0.87
370.635	1.39
371.1	1.48
371.564	1.46
372.028	0.51
372.492	1.87
372.956	1.93
373.42	1.43
373.884	0.85
374.348	1.41
374.812	0.81
375.276	1.79
375.74	1.77
376.204	0.22
376.668	1.86
377.132	1.87
377.596	1.11
378.06	1.11
378.524	1.54
378.987	1.02
379.451	0.86
379.915	2.26
380.378	1.84
380.842	1.21
381.306	1.3
381.769	2.43
382.233	1.57
382.696	1.84
383.16	1.9
383.623	0.95
384.087	1.28
384.55	2
385.014	1.89
385.477	1.26
385.94	1.55
386.404	1.3
386.867	2.16
387.33	1.11
387.793	0.81
388.256	0.56
388.72	1.89
389.183	1.54
389.646	0.76
390.109	1.79
390.572	1.16
391.035	1.5
391.498	1.59
391.961	1.89
392.424	1.67
392.887	1
393.35	1.65
393.812	1.51
394.275	0.79
394.738	1.3
395.201	0.82
395.664	1.42
396.126	0.97
396.589	1.54
397.052	1.7
397.514	1.24
397.977	1.07
398.439	0.66
398.902	1.15
399.364	1.21
399.827	1.42
400.289	1.84
400.752	1.54
401.214	1.62
401.676	0.96
402.139	1.09
402.601	0.69
403.063	1.48
403.525	1.33
403.988	0.91
404.45	1.67
404.912	1.23
405.374	1.04
405.836	1.36
406.298	1.32
406.76	1.2
407.222	1.23
407.684	1.23
408.146	1.48
408.608	2.1
409.07	1.36
409.532	1.79
409.994	1.11
410.456	1.03
410.917	1.54
411.379	0.8
411.841	1.44
412.303	1.11
412.764	0.54
413.226	1.45
413.687	0.67
414.149	2.35
414.611	1.88
415.072	0.88
415.534	1.13
415.995	1.09
416.457	1.02
416.918	1.23
417.379	1.35
417.841	0.67
418.302	1.66
418.763	1.06
419.225	1.64
419.686	1.65
420.147	0.97
420.608	1.18
421.069	0.93
421.53	1.63
421.991	1.11
422.453	1.37
422.914	1.54
423.375	1.3
423.836	1.26
424.297	1.76
424.757	0.86
425.218	0.85
425.679	1.49
426.14	1.82
426.601	1.57
427.062	0.98
427.522	0.77
427.983	1.63
428.444	2.21
428.904	1.56
429.365	1.56
429.826	0.32
430.286	1.37
430.747	1.95
431.207	0.63
431.668	0.42
432.128	0.95
432.589	1.34
433.049	1.54
433.509	2.43
433.97	-0.18
434.43	0.73
434.89	1.04
435.351	0.77
435.811	1.22
436.271	1.28
436.731	0.67
437.191	1.53
437.651	1.58
438.112	1.22
438.572	-0.05
439.032	1.17
439.492	0.45
439.952	1.51
440.412	1.35
440.871	0.76
441.331	2.03
441.791	2.13
442.251	1.12
442.711	1.93
443.171	1.16
443.63	1.06
444.09	1.23
444.55	1.94
445.009	0.99
445.469	0.3
445.929	1.62
446.388	1.63
446.848	0.78
447.307	1.9
447.767	1.27
448.226	1.77
448.686	1.69
449.145	2.18
449.604	1.24
450.064	0.5
450.523	1.11
450.982	0.51
451.442	1.41
451.901	0.05
452.36	1.19
452.819	2.15
453.278	1.59
453.737	0.49
454.197	1.4
454.656	1.99
455.115	0.54
455.574	1.39
456.033	0.91
456.492	1
456.95	0.7
457.409	0.55
457.868	1.64
458.327	0.05
458.786	1.45
459.245	1.78
459.703	1.36
460.162	1.63
460.621	0.53
461.079	1.72
461.538	1.65
461.997	0.11
462.455	2.31
462.914	1.04
463.372	1.7
463.831	1.47
464.289	0.71
464.748	1.67
465.206	1.31
465.664	1.32
466.123	0.72
466.581	0.84
467.039	0.67
467.497	0
467.956	1.6
468.414	1.24
468.872	1.5
469.33	1.66
469.788	1.31
470.246	1.04
470.704	0.3
471.162	2.69
471.62	0.18
472.078	1.11
472.536	0.67
472.994	1.43
473.452	1.22
473.91	1.31
474.368	0.55
474.826	1.03
475.283	3.13
475.741	-0.25
476.199	1.88
476.656	0.85
477.114	1.51
477.572	0.42
478.029	0
478.487	1.82
478.944	0.97
479.402	1.74
479.859	2.45
480.317	0.85
480.774	1.95
481.232	1.33
481.689	1.26
482.146	1.36
482.604	0.24
483.061	1.42
483.518	0.38
483.975	1.19
484.433	2.55
484.89	2.05
485.347	1.89
485.804	1.44
486.261	1.7
486.718	0.06
487.175	1.05
487.632	0.06
488.089	1.34
488.546	0.75
489.003	1.63
489.46	1.78
489.917	-0.13
490.373	-0.32
490.83	2.09
491.287	0.92
491.744	0.38
492.2	1.7
492.657	0.57
493.114	-0.88
493.57	1.37
494.027	1
494.484	2.04
494.94	0.2
495.397	1.13
495.853	1.07
496.31	0.86
496.766	-0.06
497.222	1.15
497.679	1.65
498.135	1
498.591	0.44
499.048	0
499.504	2.1
499.96	0.77
500.416	1.6
500.872	1.41
501.329	0.83
501.785	-0.58
502.241	1.15
502.697	0.9
503.153	1.07
503.609	0.8
504.065	0.63
504.521	0.81
504.977	0.77
505.432	0.76
505.888	-0.1
506.344	1.15
506.8	0.76
507.256	1.4
507.711	0.05
508.167	0.95
508.623	1.68
509.078	1.31
509.534	0.1
509.99	1.46
510.445	0.34
510.901	1.52
511.356	0.88
511.812	1.53
512.267	0.42
512.722	0.95
513.178	1.56
513.633	0.94
514.089	1.14
514.544	1.54
514.999	0.96
515.454	0.91
515.91	0.81
516.365	0.52
516.82	1.03
517.275	1.09
517.73	1.87
518.185	0.61
518.64	1.95
519.095	0.29
519.55	0.94
520.005	0.98
520.46	1.47
520.915	1.25
521.37	1.74
521.825	1.37
522.28	1
522.734	1.71
523.189	1.94
523.644	0.59
524.099	0.75
524.553	1.42
525.008	1.1
525.462	0.6
525.917	1.24
526.372	0.26
526.826	1.68
527.281	1.83
527.735	1.71
528.19	0.85
528.644	1.08
529.098	0.69
529.553	1.38
530.007	1.34
530.461	1.4
530.916	2.18
531.37	2.83
531.824	0.61
532.278	-0.05
532.732	2.26
533.186	1.92
533.641	0.98
534.095	1.45
534.549	1.39
535.003	1.01
535.457	1.17
535.911	1.73
536.365	1.49
536.818	1.42
537.272	0.92
537.726	0.14
538.18	0.6
538.634	1.08
539.087	0.59
539.541	1.43
539.995	0.38
540.449	1.73
540.902	0.69
541.356	2.48
541.809	0.53
542.263	1
542.716	1.83
543.17	1.87
543.623	0.6
544.077	0.79
544.53	1.85
544.984	1.42
545.437	1.41
545.89	1.33
546.344	1.01
546.797	1.45
547.25	0.96
547.703	1.6
548.157	1.64
548.61	0.49
549.063	0.64
549.516	1.76
549.969	0.57
550.422	0.39
550.875	1.39
551.328	0.39
551.781	1.71
552.234	0.93
552.687	1.3
553.14	1.05
553.592	0.95
554.045	1.39
554.498	0.96
554.951	0.52
555.404	1.32
555.856	0.66
556.309	1.05
556.762	1.69
557.214	1.18
557.667	1.11
558.119	0.97
558.572	1.36
559.024	1.39
559.477	1.06
559.929	0.25
560.382	0.88
560.834	1.38
561.286	1.23
561.739	1.47
562.191	0.76
562.643	0.89
563.095	1.66
563.548	1.59
564	1.65
564.452	1.65
564.904	1.81
565.356	0.9
565.808	1.57
566.26	0.86
566.712	1.48
567.164	1.44
567.616	1.24
568.068	1.67
568.52	1.09
568.972	1.68
569.424	1.8
569.876	2.06
570.327	0.63
570.779	1.16
571.231	0.86
571.682	1.15
572.134	1.84
572.586	1.85
573.037	1.17
573.489	0.97
573.941	1.54
574.392	0.61
574.844	1.37
575.295	1.86
575.746	1.32
576.198	2.13
576.649	1.29
577.101	1.07
577.552	1.13
578.003	0.97
578.454	1.19
578.906	1.15
579.357	1.56
579.808	1.15
580.259	1.79
580.71	1.3
581.161	1.43
581.612	1.51
582.064	0.65
582.515	1.43
582.965	0.8
583.416	1.26
583.867	1.25
584.318	1
584.769	1.53
585.22	0.91
585.671	0.83
586.122	1.45
586.572	1.25
587.023	1.71
587.474	1.08
587.924	1.32
588.375	0.97
588.826	1.07
589.276	1.52
589.727	0.72
590.177	0.43
590.628	1.14
591.078	1.5
591.529	0.86
591.979	1.55
592.429	1.43
592.88	1.01
593.33	1.12
593.78	0.97
594.231	1.29
594.681	1.3
595.131	0.66
595.581	0.72
596.031	1.01
596.481	1.28
596.932	1.22
597.382	1.39
597.832	1.2
598.282	1.01
598.732	1.02
599.182	1.15
599.632	1.86
600.081	1.09
600.531	1.29
600.981	1.55
601.431	1.03
601.881	1.95
602.33	0.66
602.78	1.51
603.23	1.4
603.679	1.24
604.129	1.01
604.579	1.81
605.028	1.29
605.478	1.36
605.927	1.44
606.377	0.72
606.826	1.36
607.276	1.37
607.725	1.38
608.175	1.21
608.624	0.92
609.073	1.55
609.522	1.99
609.972	1.38
610.421	1.12
610.87	0.77
611.319	1.24
611.768	1.22
612.218	1.48
612.667	1.11
613.116	1.43
613.565	1.67
614.014	1.17
614.463	1.35
614.912	0.59
615.361	1.07
615.81	1.35
616.258	1.82
616.707	1.54
617.156	1.15
617.605	1.01
618.054	1.6
618.502	1.57
618.951	1.09
619.4	1.28
619.848	1.35
620.297	1.31
620.745	1.63
621.194	1.08
621.642	1.54
622.091	1.26
622.539	1.31
622.988	1.16
623.436	1.57
623.885	1.3
624.333	1.23
624.781	1.15
625.23	1.36
625.678	1.13
626.126	1.69
626.574	1.17
627.022	1.07
627.471	1.63
627.919	1.87
628.367	1.35
628.815	1.53
629.263	1.4
629.711	1.29
630.159	1.28
630.607	1.83
631.055	1.42
631.503	1.32
631.95	1.41
632.398	1.01
632.846	0.94
633.294	1.36
633.742	1.72
634.189	1.34
634.637	1.08
635.085	0.91
635.532	1.28
635.98	1.18
636.427	1.39
636.875	1.52
637.323	1.75
637.77	1.3
638.217	1.1
638.665	1.49
639.112	0.88
639.56	1.82
640.007	1.13
640.454	1.37
640.902	1.25
641.349	1.77
641.796	1.17
642.243	1.89
642.69	1.55
643.138	1.26
643.585	1.51
644.032	1.54
644.479	1.44
644.926	1.31
645.373	1.19
645.82	1.06
646.267	1.39
646.714	1.23
647.161	1.72
647.607	1.73
648.054	1.22
648.501	1.2
648.948	1.44
649.395	1.27
649.841	1.51
650.288	1.5
650.735	1.51
651.181	1.6
651.628	1.06
652.075	1.23
652.521	1.64
652.968	1.33
653.414	1.31
653.861	1.27
654.307	0.96
654.753	1.31
655.2	1.85
655.646	1.41
656.092	1.18
656.539	1.24
656.985	1.31
657.431	1.43
657.877	1.36
658.324	1.57
658.77	1.28
659.216	1.41
659.662	1.46
660.108	1.05
660.554	1.58
661	1.13
661.446	1.8
661.892	1.31
662.338	1.31
662.784	1.25
663.23	1.96
663.675	1.57
664.121	1.77
664.567	1.39
665.013	1.28
665.458	1.53
665.904	1.95
666.35	1.07
666.795	1.17
667.241	1.21
667.687	1.31
668.132	1.46
668.578	1.09
669.023	1.63
669.469	1.21
669.914	1.44
670.359	1.29
670.805	1.36
671.25	1.37
671.695	1.14
672.141	1.39
672.586	1.36
673.031	1.42
673.476	1.6
673.922	1.86
674.367	1.41
674.812	1.43
675.257	1.45
675.702	1.43
676.147	1.84
676.592	1.56
677.037	1.77
677.482	1.22
677.927	1.21
678.372	1.65
678.817	1.49
679.261	1.22
679.706	1.41
680.151	1.54
680.596	1.29
681.04	1.38
681.485	1.36
681.93	1.62
682.374	1.19
682.819	1.33
683.264	1.29
683.708	1.36
684.153	1.53
684.597	1.02
685.042	1.5
685.486	1.15
685.93	1.76
686.375	1.29
686.819	1.59
687.263	1.01
687.708	1.27
688.152	1.48
688.596	1.55
689.04	1.54
689.485	1.37
689.929	1.37
690.373	1.68
690.817	1.64
691.261	1.67
691.705	1.26
692.149	1.24
692.593	1.39
693.037	1.44
693.481	1.65
693.925	1.71
694.369	1.38
694.812	1.79
695.256	1.51
695.7	1.47
696.144	1.67
696.587	1.54
697.031	1.4
697.475	1.44
697.918	1.42
698.362	1.42
698.806	1.61
699.249	1.48
699.693	1.49
700.136	1.7
700.58	1.46
701.023	1.52
701.466	1.72
701.91	1.68
702.353	1.67
702.796	1.35
703.24	1.47
703.683	1.58
704.126	1.44
704.569	1.27
705.013	1.73
705.456	1.43
705.899	1.54
706.342	1.35
706.785	1.54
707.228	1.58
707.671	1.58
708.114	1.37
708.557	1.44
709	1.46
709.443	1.52
709.886	1.74
710.328	1.63
710.771	1.63
711.214	1.45
711.657	1.67
712.099	1.51
712.542	1.51
712.985	1.75
713.427	1.14
713.87	1.52
714.313	1.49
714.755	1.36
715.198	1.49
715.64	1.44
716.083	1.8
716.525	1.77
716.967	1.63
717.41	1.68
717.852	1.53
718.295	1.19
718.737	1.76
719.179	1.58
719.621	1.83
720.063	1.6
720.506	1.26
720.948	1.51
721.39	1.5
721.832	1.91
722.274	1.57
722.716	1.25
723.158	1.77
723.6	1.66
724.042	1.7
724.484	1.46
724.926	1.58
725.368	1.42
725.81	1.41
726.251	1.5
726.693	1.56
727.135	1.74
727.577	1.54
728.018	1.42
728.46	1.46
728.902	1.58
729.343	1.54
729.785	1.59
730.226	1.26
730.668	1.56
731.109	1.55
731.551	1.91
731.992	1.53
732.434	1.91
732.875	1.5
733.316	1.33
733.758	1.41
734.199	1.43
734.64	1.09
735.081	1.77
735.523	1.56
735.964	1.35
736.405	1.38
736.846	1.54
737.287	1.62
737.728	1.73
738.169	1.24
738.61	1.58
739.051	1.55
739.492	1.86
739.933	1.49
740.374	1.53
740.815	1.62
741.256	1.18
741.696	1.8
742.137	1.38
742.578	1.24
743.019	1.45
743.459	1.69
743.9	1.62
744.341	1.43
744.781	1.88
745.222	1.56
745.662	1.6
746.103	1.68
746.543	1.27
746.984	1.49
747.424	1.91
747.865	1.58
748.305	1.63
748.745	1.59
749.186	1.43
749.626	1.48
750.066	1.54
750.506	1.34
750.947	1.72
751.387	1.51
751.827	1.69
752.267	1.65
752.707	1.42
753.147	1.68
753.587	1.7
754.027	1.68
754.467	1.49
754.907	1.57
755.347	1.37
755.787	1.29
756.227	1.54
756.667	1.52
757.107	1.74
757.546	1.62
757.986	1.76
758.426	1.63
758.865	1.64
759.305	1.58
759.745	1.69
760.184	1.47
760.624	1.55
761.063	1.73
761.503	1.68
761.943	1.34
762.382	1.78
762.821	1.42
763.261	1.59
763.7	1.93
764.14	1.56
764.579	1.74
765.018	1.71
765.457	1.61
765.897	1.66
766.336	1.72
766.775	1.85
767.214	1.77
767.653	1.74
768.092	1.72
768.531	1.74
768.97	1.28
769.409	1.53
769.848	1.72
770.287	1.91
770.726	1.53
771.165	1.57
771.604	1.54
772.043	1.4
772.482	1.83
772.92	1.63
773.359	1.62
773.798	1.95
774.237	1.82
774.675	1.7
775.114	1.6
775.553	1.82
775.991	1.6
776.43	1.61
776.868	1.6
777.307	1.44
777.745	1.7
778.184	1.58
778.622	1.66
779.06	1.77
779.499	1.68
779.937	1.83
780.375	1.68
780.814	1.72
781.252	1.49
781.69	1.77
782.128	1.88
782.566	1.72
783.004	1.71
783.443	1.97
783.881	1.61
784.319	1.85
784.757	1.63
785.195	1.82
785.633	1.94
786.071	1.77
786.508	1.76
786.946	1.42
787.384	1.54
787.822	1.77
788.26	2.01
788.697	1.82
789.135	1.65
789.573	1.78
790.011	1.71
790.448	1.59
790.886	1.83
791.323	1.84
791.761	1.57
792.198	1.6
792.636	1.91
793.073	1.7
793.511	1.81
793.948	1.74
794.386	1.62
794.823	1.81
795.26	2.1
795.698	1.88
796.135	1.95
796.572	1.7
797.009	1.77
797.446	1.8
797.884	1.8
798.321	1.82
798.758	1.9
799.195	1.58
799.632	1.86
800.069	1.94
800.506	1.75
800.943	1.65
801.38	1.77
801.817	1.94
802.254	1.77
802.69	1.77
803.127	1.69
803.564	1.84
804.001	1.92
804.438	1.76
804.874	1.87
805.311	1.88
805.748	1.75
806.184	1.71
806.621	1.91
807.057	2.05
807.494	1.79
807.93	1.91
808.367	1.75
808.803	1.83
809.24	1.92
809.676	1.89
810.112	1.92
810.549	2
810.985	1.94
811.421	2.06
811.857	1.86
812.294	1.81
812.73	1.95
813.166	1.87
813.602	1.99
814.038	1.66
814.474	2.04
814.91	2.03
815.346	1.88
815.782	1.81
816.218	1.93
816.654	1.8
817.09	1.83
817.526	2.04
817.962	1.8
818.398	2.01
818.833	1.94
819.269	2.13
819.705	2.05
820.141	2.01
820.576	1.89
821.012	1.92
821.447	1.97
821.883	1.86
822.319	1.96
822.754	2.04
823.19	2.02
823.625	1.93
824.061	1.94
824.496	2
824.931	1.87
825.367	2.18
825.802	2.11
826.237	2.03
826.673	2.01
827.108	1.92
827.543	1.99
827.978	2.02
828.413	1.9
828.849	1.93
829.284	2.14
829.719	2.09
830.154	2.05
830.589	2.24
831.024	1.84
831.459	2.11
831.894	2.1
832.329	1.86
832.763	2.04
833.198	1.95
833.633	1.98
834.068	2.2
834.503	1.97
834.937	2.03
835.372	1.99
835.807	2.08
836.241	1.96
836.676	2.18
837.111	1.97
837.545	2.1
837.98	2.01
838.414	2.1
838.849	2.03
839.283	1.94
839.717	2.24
840.152	2
840.586	2.06
841.021	2.15
841.455	1.86
841.889	2.04
842.323	2.07
842.758	1.9
843.192	1.99
843.626	2.03
844.06	1.97
844.494	2.01
844.928	2.17
845.362	2.23
845.796	2.13
846.23	2.22
846.664	2.17
847.098	2.16
847.532	2.09
847.966	2.12
848.4	2.14
848.834	2.19
849.267	2.13
849.701	2.13
850.135	2.13
850.569	2.01
851.002	2.22
851.436	2.24
851.87	2.02
852.303	2.15
852.737	2.19
853.17	2.28
853.604	2.2
854.037	2.19
854.471	2.24
854.904	2.24
855.337	2.41
855.771	2.18
856.204	2.07
856.637	2.3
857.071	2.11
857.504	2.27
857.937	2.07
858.37	2.12
858.804	2.04
859.237	2.05
859.67	2.24
860.103	2.22
860.536	2.23
860.969	1.93
861.402	2.26
861.835	2.33
862.268	2.54
862.701	2.32
863.134	2.34
863.566	2.25
863.999	2.09
864.432	2.12
864.865	2.15
865.298	2.38
865.73	2.3
866.163	2.39
866.596	2.4
867.028	2.28
867.461	2.27
867.893	2.21
868.326	2.57
868.758	2.23
869.191	2.41
869.623	2.38
870.056	2.2
870.488	2.28
870.92	2.28
871.353	2.38
871.785	2.43
872.217	2.21
872.65	2.35
873.082	2.53
873.514	2.48
873.946	2.38
874.378	2.3
874.81	2.24
875.243	2.49
875.675	2.28
876.107	2.32
876.539	2.42
876.971	2.43
877.403	2.3
877.834	2.47
878.266	2.36
878.698	2.34
879.13	2.32
879.562	2.53
879.994	2.47
880.425	2.39
880.857	2.37
881.289	2.35
881.72	2.53
882.152	2.41
882.584	2.46
883.015	2.22
883.447	2.32
883.878	2.5
884.31	2.49
884.741	2.43
885.173	2.43
885.604	2.31
886.035	2.57
886.467	2.53
886.898	2.28
887.329	2.58
887.76	2.51
888.192	2.57
888.623	2.4
889.054	2.54
889.485	2.37
889.916	2.36
890.347	2.5
890.778	2.42
891.209	2.55
891.64	2.6
892.071	2.52
892.502	2.53
892.933	2.44
893.364	2.62
893.795	2.72
894.226	2.72
894.657	2.53
895.087	2.44
895.518	2.68
895.949	2.66
896.38	2.52
896.81	2.75
897.241	2.71
897.671	2.61
898.102	2.64
898.533	2.62
898.963	2.66
899.394	2.56
899.824	2.6
900.254	2.54
900.685	2.56
901.115	2.69
901.546	2.72
901.976	2.7
902.406	2.78
902.836	2.55
903.267	2.69
903.697	2.57
904.127	2.64
904.557	2.6
904.987	2.66
905.417	2.41
905.847	2.75
906.277	2.82
906.707	2.67
907.137	2.7
907.567	2.68
907.997	2.75
908.427	2.73
908.857	2.72
909.287	2.76
909.717	2.56
910.146	2.57
910.576	2.82
911.006	2.62
911.436	2.82
911.865	2.74
912.295	2.68
912.724	2.79
913.154	2.63
913.584	2.68
914.013	2.75
914.443	2.95
914.872	2.69
915.302	2.85
915.731	2.82
916.16	2.83
916.59	2.68
917.019	2.75
917.448	2.79
917.878	2.88
918.307	2.83
918.736	2.87
919.165	2.77
919.594	2.81
920.023	2.96
920.452	2.89
920.882	2.89
921.311	2.93
921.74	2.88
922.169	2.77
922.597	2.95
923.026	2.88
923.455	2.89
923.884	2.99
924.313	2.9
924.742	3.05
925.171	2.73
925.599	2.91
926.028	2.92
926.457	2.83
926.885	2.96
927.314	2.93
927.743	2.99
928.171	2.86
928.6	2.86
929.028	3.02
929.457	2.93
929.885	2.94
930.314	2.95
930.742	3.03
931.17	3.04
931.599	3.08
932.027	2.97
932.455	2.87
932.884	2.94
933.312	3.18
933.74	3.06
934.168	3.04
934.596	2.91
935.025	2.87
935.453	3
935.881	3.08
936.309	3.11
936.737	3.14
937.165	3.08
937.593	2.87
938.021	3.2
938.449	2.73
938.876	3.03
939.304	2.78
939.732	3.22
940.16	3.09
940.588	3.18
941.015	2.91
941.443	3.1
941.871	3.05
942.298	3.15
942.726	3.21
943.154	3.15
943.581	2.88
944.009	3.09
944.436	3.13
944.864	3.09
945.291	3.39
945.718	3.16
946.146	3.14
946.573	3.17
947.001	2.88
947.428	3.26
947.855	3.08
948.282	3.13
948.71	3.43
949.137	3.19
949.564	3.21
949.991	3.44
950.418	3.1
950.845	3.24
951.272	3.24
951.699	3.28
952.126	3.37
952.553	3.45
952.98	3.33
953.407	3.32
953.834	3.09
954.261	3.47
954.688	3.27
955.114	3.09
955.541	3.42
955.968	3.19
956.395	3.23
956.821	3.3
957.248	3.32
957.674	3.31
958.101	3.29
958.528	3.39
958.954	3.31
959.381	3.26
959.807	3.39
960.234	3.47
960.66	3.47
961.086	3.29
961.513	3.43
961.939	3.27
962.365	3.62
962.792	3.44
963.218	3.42
963.644	3.43
964.07	3.37
964.496	3.38
964.923	3.38
965.349	3.62
965.775	3.52
966.201	3.5
966.627	3.54
967.053	3.47
967.479	3.51
967.905	3.48
968.331	3.39
968.756	3.58
969.182	3.61
969.608	3.59
970.034	3.48
970.46	3.38
970.885	3.63
971.311	3.63
971.737	3.6
972.162	3.68
972.588	3.68
973.014	3.68
973.439	3.56
973.865	3.62
974.29	3.6
974.716	3.6
975.141	3.69
975.567	3.6
975.992	3.74
976.417	3.63
976.843	3.71
977.268	3.7
977.693	3.7
978.119	3.68
978.544	3.68
978.969	3.56
979.394	3.77
979.819	3.62
980.244	3.79
980.669	3.72
981.095	3.81
981.52	3.72
981.945	3.83
982.369	3.99
982.794	3.89
983.219	3.78
983.644	3.94
984.069	3.88
984.494	3.9
984.919	3.83
985.343	3.81
985.768	3.91
986.193	3.82
986.618	3.86
987.042	3.87
987.467	3.97
987.891	3.85
988.316	4.1
988.741	4.06
989.165	3.92
989.59	4.04
990.014	3.94
990.438	3.98
990.863	4
991.287	3.97
991.712	3.96
992.136	4.04
992.56	3.96
992.984	4.17
993.409	4.07
993.833	3.94
994.257	4.01
994.681	4.05
995.105	4.12
995.529	4.02
995.953	4.09
996.377	4.11
996.801	4.17
997.225	4.03
997.649	4.1
998.073	4.09
998.497	3.93
998.921	4.09
999.345	4.27
999.769	4.16
1000.192	4.06
1000.616	4.18
1001.04	4.21
1001.464	4.22
1001.887	4.16
1002.311	4.12
1002.734	4.11
1003.158	4.16
1003.582	4.35
1004.005	4.22
1004.429	4.29
1004.852	4.31
1005.275	4.15
1005.699	4.19
1006.122	4.21
1006.546	4.02
1006.969	4.18
1007.392	4.19
1007.815	4.3
1008.239	4.25
1008.662	4.26
1009.085	4.31
1009.508	4.31
1009.931	4.27
1010.354	4.47
1010.778	4.34
1011.201	4.43
1011.624	4.23
1012.047	4.35
1012.469	4.54
1012.892	4.25
1013.315	4.32
1013.738	4.58
1014.161	4.3
1014.584	4.34
1015.007	4.35
1015.429	4.34
1015.852	4.44
1016.275	4.47
1016.697	4.49
1017.12	4.44
1017.543	4.52
1017.965	4.44
1018.388	4.45
1018.81	4.48
1019.233	4.38
1019.655	4.55
1020.078	4.39
1020.5	4.43
1020.922	4.46
1021.345	4.49
1021.767	4.54
1022.189	4.46
1022.612	4.55
1023.034	4.44
1023.456	4.7
1023.878	4.67
1024.301	4.69
1024.723	4.6
1025.145	4.5
1025.567	4.55
1025.989	4.58
1026.411	4.58
1026.833	4.61
1027.255	4.67
1027.677	4.64
1028.099	4.62
1028.52	4.62
1028.942	4.71
1029.364	4.54
1029.786	4.59
1030.208	4.72
1030.629	4.78
1031.051	4.7
1031.473	4.89
1031.894	4.92
1032.316	4.73
1032.738	4.96
1033.159	4.68
1033.581	4.89
1034.002	4.76
1034.424	4.85
1034.845	4.88
1035.267	4.79
1035.688	4.75
1036.109	4.75
1036.531	4.92
1036.952	4.91
1037.373	4.76
1037.794	4.84
1038.216	4.78
1038.637	4.81
1039.058	4.76
1039.479	4.9
1039.9	4.81
1040.321	4.67
1040.742	4.82
1041.163	5.01
1041.584	4.98
1042.005	4.72
1042.426	4.87
1042.847	4.67
1043.268	4.76
1043.689	4.88
1044.11	5.1
1044.53	4.98
1044.951	4.88
1045.372	5.05
1045.793	4.69
1046.213	5.06
1046.634	4.75
1047.055	5.02
1047.475	5.42
1047.896	4.94
1048.316	5.24
1048.737	5.02
1049.157	5.02
1049.578	4.76
1049.998	4.96
1050.419	5.25
1050.839	4.78
1051.259	4.92
1051.68	5.34
1052.1	5.32
1052.52	5.06
1052.94	5.02
1053.361	5.21
1053.781	4.86
1054.201	5.28
1054.621	5.36
1055.041	5.02
1055.461	5.38
1055.881	5.04
1056.301	5.1
1056.721	5.12
1057.141	5.27
1057.561	4.99
1057.981	5.04
1058.401	5.2
1058.82	5.08
1059.24	5.03
1059.66	5.28
1060.08	5.36
1060.499	5.02
1060.919	5.02
1061.339	5.31
1061.758	5.36
1062.178	5.15
1062.598	5.57
1063.017	5.57
1063.437	5.36
1063.856	5.18
1064.276	5.27
1064.695	5.43
1065.114	5.32
1065.534	5.29
1065.953	5.33
1066.372	5.38
1066.792	5.13
1067.211	5.48
1067.63	5.35
1068.049	5.44
1068.469	5.45
1068.888	5.54
1069.307	5.46
1069.726	5.28
1070.145	5.24
1070.564	5.38
1070.983	5.29
1071.402	5.14
1071.821	5.46
1072.24	4.88
1072.659	5.13
1073.078	5.56
1073.496	6.08
1073.915	5.56
1074.334	5.51
1074.753	5.26
1075.171	5.2
1075.59	5.27
1076.009	5.7
1076.427	5.56
1076.846	5.31
1077.265	5.17
1077.683	6.03
1078.102	5.7
1078.52	5.37
1078.939	5.92
1079.357	5.76
1079.776	5.75
1080.194	5.52
1080.612	5.8
1081.031	5.62
1081.449	5.84
1081.867	5.18
1082.285	5.5
1082.704	5.47
1083.122	5.26
1083.54	6.07
1083.958	6.07
1084.376	5.46
1084.794	6.51
1085.212	5.56
1085.63	5.67
1086.048	5.42
1086.466	6.06
1086.884	5.84
1087.302	5.51
1087.72	6.05
1088.138	5.27
1088.555	5.89
1088.973	5.96
1089.391	5.85
1089.809	5.27
1090.226	5.01
1090.644	5.95
1091.062	5.83
1091.479	7.51
1091.897	5.3
1092.314	5.53
1092.732	5.84
1093.15	5.47
1093.567	6.47
1093.984	5.9
1094.402	6.28
1094.819	5.82
1095.237	6.05
1095.654	6.53
1096.071	6.58
1096.488	6.55
1096.906	6.6
1097.323	5.64
1097.74	5.55
1098.157	6.19
1098.574	6.51
1098.991	5.74
1099.409	6.74
1099.826	5.23
1100.243	6.32
1100.66	4.36
1101.077	6.74
1101.494	5.52
1101.91	6.19
1102.327	5.39
1102.744	4.61
1103.161	5.88
1103.578	5.89
1103.994	5.61
1104.411	5.21
1104.828	5.95
1105.245	4.58
1105.661	5.84
1106.078	5.81
1106.494	6.77
1106.911	4.41
1107.328	5.54
1107.744	5.56
1108.161	5
1108.577	6.01
1108.993	6.01
1109.41	5
1109.826	6.1
1110.242	6.66
1110.659	4.89
1111.075	6.71
1111.491	5.29
1111.908	4.47
1112.324	5.72
1112.74	-12.67
1113.156	6.33
1113.572	5.35
1113.988	6
1114.404	2.82
1114.82	2.97
1115.236	4.96
1115.652	1.9
1116.068	5.91
1116.484	5.55
1116.9	6.29
1117.316	7.56
1117.732	26.09
1118.147	0
1118.563	800
1118.979	133.33
