Data from JCR0013_YellowVentral_Reflection_16-29-24-863.txt Node
Date: Fri Jul 31 16:29:24 ACST 2020
User: Stacey Dix
Spectrometer: MAYP113282
Scans to average: 1
Trigger mode: 0
Integration Time (sec): 1.000000E-1
Electric dark correction enabled: true
Boxcar width: 0
XAxis mode: Wavelengths
Number of Pixels in Spectrum: 2068
>>>>>Begin Spectral Data<<<<<
198.791	562.5
199.266	53.57
199.74	30
200.215	-1275
200.69	-12.04
201.164	31.44
201.639	8.88
202.114	18.33
202.588	11.54
203.063	65.31
203.537	6.65
204.012	20.81
204.486	39.77
204.961	7.67
205.435	18.98
205.909	12.4
206.384	6.77
206.858	20.71
207.332	44.15
207.807	43.92
208.281	2.06
208.755	25.59
209.229	25.09
209.703	23.93
210.177	17.78
210.651	37.78
211.126	17.07
211.6	35.93
212.074	19.49
212.548	10.71
213.021	20.22
213.495	32.94
213.969	22.98
214.443	20.18
214.917	33.28
215.391	37.66
215.864	17.95
216.338	23.21
216.812	-4.71
217.286	10.56
217.759	37.94
218.233	19.98
218.706	11.43
219.18	29.1
219.654	24.88
220.127	22.33
220.6	22.36
221.074	15.55
221.547	22.51
222.021	24.92
222.494	16.9
222.967	9.89
223.441	18.36
223.914	14.05
224.387	14.33
224.86	22.3
225.334	21.58
225.807	20.44
226.28	19.21
226.753	16.93
227.226	18.72
227.699	15.76
228.172	16.71
228.645	13.83
229.118	18.52
229.591	14.01
230.064	12.98
230.537	15.85
231.01	15.03
231.482	15.23
231.955	12.76
232.428	17.21
232.901	15.65
233.373	15.83
233.846	15.45
234.319	16.27
234.791	15.29
235.264	15.67
235.736	15.38
236.209	15.38
236.681	15.92
237.154	14.83
237.626	14.73
238.099	14.94
238.571	13.32
239.044	15.05
239.516	13.22
239.988	14.62
240.46	15.81
240.933	14.99
241.405	15.49
241.877	14.28
242.349	14.09
242.821	13.19
243.293	14.91
243.765	13.72
244.237	14.45
244.71	13.6
245.181	13.85
245.653	14.28
246.125	13.71
246.597	13.69
247.069	14.83
247.541	14.62
248.013	14.57
248.485	13.22
248.956	12.08
249.428	13.45
249.9	12.44
250.371	13.15
250.843	12.34
251.315	13.9
251.786	13.33
252.258	13.75
252.729	12.54
253.201	13.62
253.672	11.81
254.144	12.96
254.615	12.07
255.086	11.84
255.558	12.72
256.029	12.97
256.5	14.03
256.972	13.28
257.443	11.65
257.914	11.98
258.385	13.02
258.856	12.97
259.327	13.04
259.799	11.84
260.27	12.38
260.741	13.14
261.212	12.93
261.683	12.7
262.154	11.78
262.624	13.4
263.095	12.82
263.566	12.62
264.037	12.4
264.508	12.99
264.979	11.45
265.449	12.05
265.92	12.21
266.391	11.44
266.861	12.3
267.332	12.58
267.803	11.92
268.273	12.81
268.744	12.96
269.214	12.82
269.685	12.17
270.155	11.61
270.626	12.69
271.096	11.89
271.566	13.21
272.037	12.39
272.507	11.72
272.977	12.53
273.448	12.17
273.918	10.98
274.388	12.49
274.858	12.43
275.328	11.88
275.798	12.44
276.268	11.61
276.738	11.9
277.208	11.86
277.678	12.17
278.148	11.39
278.618	12.55
279.088	12.41
279.558	10.99
280.028	11.72
280.498	10.66
280.968	10.85
281.437	11.26
281.907	12.32
282.377	11.12
282.847	12.06
283.316	11.6
283.786	12.31
284.255	11.65
284.725	11.81
285.194	11.9
285.664	12.8
286.133	11.19
286.603	11.58
287.072	11.54
287.542	11.51
288.011	11.26
288.48	11.16
288.95	11.75
289.419	11.54
289.888	11.64
290.357	12.05
290.827	12.38
291.296	11.71
291.765	12.01
292.234	12.18
292.703	12.13
293.172	12.28
293.641	11.82
294.11	12.46
294.579	12.02
295.048	12.2
295.517	12.33
295.986	12.74
296.455	12.4
296.923	12
297.392	12.66
297.861	11.29
298.33	12.67
298.798	13.14
299.267	13.46
299.736	11.46
300.204	12.62
300.673	12.58
301.141	12.84
301.61	13.53
302.079	12.15
302.547	13.06
303.015	12.83
303.484	12.25
303.952	12.89
304.421	12.11
304.889	12.36
305.357	13.31
305.825	11.84
306.294	13.96
306.762	13.82
307.23	12.7
307.698	12.87
308.166	13.95
308.634	12.9
309.103	14.57
309.571	13.41
310.039	13.15
310.507	13.44
310.975	13.67
311.442	13.88
311.91	14.5
312.378	14.34
312.846	13.33
313.314	13.78
313.782	14.84
314.249	14.76
314.717	15.74
315.185	14.4
315.652	15.81
316.12	14.04
316.588	14.82
317.055	15.04
317.523	15.12
317.99	14.35
318.458	15.36
318.925	14.8
319.393	14.76
319.86	14.86
320.328	15.16
320.795	15.56
321.262	16.14
321.73	15.07
322.197	14.23
322.664	15.86
323.131	15.39
323.598	16.8
324.066	16.64
324.533	16.18
325	16.77
325.467	18.22
325.934	17.27
326.401	18.51
326.868	18.86
327.335	18.85
327.802	18.91
328.269	19.6
328.735	17.77
329.202	19.72
329.669	20.04
330.136	21.65
330.603	21.01
331.069	21.75
331.536	22.36
332.003	22.49
332.469	23.2
332.936	22.97
333.402	22.88
333.869	24.2
334.336	24.05
334.802	24.19
335.268	24.33
335.735	24.09
336.201	25.93
336.668	22.31
337.134	23.85
337.6	23.96
338.067	24.13
338.533	24.21
338.999	22.98
339.465	24.65
339.931	23.36
340.398	24.82
340.864	25.4
341.33	24.3
341.796	23.11
342.262	23.56
342.728	24.81
343.194	25.27
343.66	24.8
344.126	22.12
344.592	24.24
345.057	22.92
345.523	26.57
345.989	24.32
346.455	22.75
346.921	26.02
347.386	24.33
347.852	23.81
348.318	22.39
348.783	24.38
349.249	24.42
349.714	23.41
350.18	25.53
350.645	23.37
351.111	24.62
351.576	24.55
352.042	23.57
352.507	23.82
352.973	23.35
353.438	23.55
353.903	25.1
354.369	22.36
354.834	24.56
355.299	22.73
355.764	25.95
356.229	24.16
356.695	22.75
357.16	22.87
357.625	24.56
358.09	24.66
358.555	23.97
359.02	23.89
359.485	21.97
359.95	21.94
360.415	23.24
360.879	22.75
361.344	25.16
361.809	22.89
362.274	24.12
362.739	23.52
363.203	23.08
363.668	22.24
364.133	22.26
364.597	22.34
365.062	23.11
365.527	24.06
365.991	21.79
366.456	22.68
366.92	21.99
367.385	23.82
367.849	23.07
368.314	22.61
368.778	22.51
369.242	23.03
369.707	23.06
370.171	24.4
370.635	24.82
371.1	21.55
371.564	24.37
372.028	22.46
372.492	23.78
372.956	21.73
373.42	24.04
373.884	23.91
374.348	22.78
374.812	22.96
375.276	23
375.74	21.15
376.204	24.02
376.668	23.01
377.132	22.63
377.596	22.52
378.06	21.37
378.524	21.34
378.987	22.45
379.451	20.66
379.915	20.78
380.378	21.27
380.842	23.56
381.306	21.55
381.769	21.91
382.233	20.91
382.696	21.79
383.16	20.36
383.623	22.29
384.087	21.56
384.55	20.16
385.014	20.59
385.477	21.18
385.94	21.28
386.404	21.23
386.867	19.15
387.33	21.19
387.793	20.53
388.256	21.24
388.72	19.31
389.183	20.48
389.646	21.44
390.109	19.66
390.572	21.48
391.035	19.62
391.498	19.83
391.961	18.63
392.424	19.35
392.887	19.93
393.35	20.18
393.812	19.47
394.275	19.7
394.738	19.18
395.201	19.54
395.664	19.09
396.126	20.77
396.589	18.48
397.052	19.14
397.514	19.2
397.977	18.82
398.439	19.93
398.902	17.54
399.364	19.65
399.827	18.57
400.289	19.62
400.752	19.15
401.214	17.8
401.676	19.84
402.139	18.49
402.601	18.29
403.063	18.87
403.525	17.89
403.988	16.75
404.45	17.07
404.912	18.35
405.374	18.25
405.836	17.28
406.298	17.98
406.76	17.08
407.222	17.06
407.684	18.34
408.146	17.2
408.608	17.11
409.07	16.44
409.532	17.57
409.994	17.79
410.456	16.53
410.917	16.12
411.379	16.45
411.841	18.11
412.303	15.4
412.764	16.36
413.226	16.57
413.687	16.1
414.149	17.53
414.611	15.59
415.072	17.05
415.534	17.65
415.995	15.79
416.457	16.26
416.918	18.45
417.379	17.1
417.841	16.63
418.302	16.87
418.763	16.94
419.225	16.6
419.686	17.48
420.147	16.96
420.608	15.32
421.069	17.07
421.53	17.75
421.991	18.91
422.453	16.57
422.914	17.3
423.375	19.21
423.836	17.82
424.297	18.73
424.757	18.23
425.218	19.13
425.679	16.95
426.14	17.2
426.601	19.69
427.062	17
427.522	16.15
427.983	18.33
428.444	18.01
428.904	18.22
429.365	20.57
429.826	16.87
430.286	20.99
430.747	18.34
431.207	18.55
431.668	19.16
432.128	20.21
432.589	18.55
433.049	20.66
433.509	22.74
433.97	18.87
434.43	18.32
434.89	17.71
435.351	18.67
435.811	19.33
436.271	20.83
436.731	19.06
437.191	19.29
437.651	20.05
438.112	21.19
438.572	17.97
439.032	19.09
439.492	21.55
439.952	18.52
440.412	18.31
440.871	21.93
441.331	19.5
441.791	18.52
442.251	20.41
442.711	19.24
443.171	21.99
443.63	19.97
444.09	19.15
444.55	20.49
445.009	22.57
445.469	22.17
445.929	20.79
446.388	20.36
446.848	21.76
447.307	19.76
447.767	22.97
448.226	19.89
448.686	20.82
449.145	20.51
449.604	22.48
450.064	19.48
450.523	21.97
450.982	21.17
451.442	21.8
451.901	24.3
452.36	22.15
452.819	21.39
453.278	22.93
453.737	21.61
454.197	21.73
454.656	22.2
455.115	20.47
455.574	21.26
456.033	22.38
456.492	19.48
456.95	22.87
457.409	22.33
457.868	21.53
458.327	21.4
458.786	20.99
459.245	22.72
459.703	20.66
460.162	23.08
460.621	24.22
461.079	21
461.538	19.48
461.997	21.37
462.455	23.23
462.914	21.83
463.372	22.37
463.831	21.92
464.289	24.31
464.748	21.6
465.206	25.3
465.664	24.86
466.123	24.06
466.581	22.26
467.039	21.65
467.497	20.36
467.956	24.94
468.414	23.26
468.872	22.4
469.33	23.66
469.788	23.91
470.246	25.73
470.704	24.32
471.162	25.82
471.62	24.62
472.078	24.85
472.536	21.42
472.994	27.18
473.452	23.04
473.91	24.46
474.368	24.06
474.826	25.76
475.283	27.17
475.741	24.73
476.199	26.7
476.656	26.75
477.114	27.55
477.572	24.96
478.029	24.96
478.487	23.64
478.944	24.61
479.402	27.96
479.859	25.23
480.317	25.42
480.774	28.08
481.232	28.99
481.689	27.63
482.146	28.82
482.604	28.82
483.061	27.18
483.518	29
483.975	26.04
484.433	29.52
484.89	30.17
485.347	27.79
485.804	29.74
486.261	30.13
486.718	28.61
487.175	26.96
487.632	30.73
488.089	30.5
488.546	31.19
489.003	29.95
489.46	30.53
489.917	31.95
490.373	33.04
490.83	30.57
491.287	33.36
491.744	31.88
492.2	30.34
492.657	31.27
493.114	30.83
493.57	35.3
494.027	30.14
494.484	34.9
494.94	34.88
495.397	32.5
495.853	32.12
496.31	29.78
496.766	30.67
497.222	33.07
497.679	32.9
498.135	33.76
498.591	31.38
499.048	29.51
499.504	31.32
499.96	33.57
500.416	33.65
500.872	35.04
501.329	33.36
501.785	33.95
502.241	33.22
502.697	34.87
503.153	33.98
503.609	34.48
504.065	35.65
504.521	34.94
504.977	32.98
505.432	32.31
505.888	35.67
506.344	31.72
506.8	36.65
507.256	34.47
507.711	33.76
508.167	31.55
508.623	37.03
509.078	33.43
509.534	34.27
509.99	34.98
510.445	35.62
510.901	34.08
511.356	36.21
511.812	36.67
512.267	34
512.722	33.4
513.178	35.41
513.633	34.13
514.089	35.03
514.544	36.23
514.999	35.78
515.454	34.29
515.91	35.68
516.365	34.25
516.82	33.1
517.275	33.59
517.73	37.69
518.185	35.88
518.64	34.2
519.095	36.01
519.55	35.91
520.005	35.34
520.46	33.25
520.915	35.41
521.37	37.13
521.825	35.81
522.28	36.18
522.734	33.21
523.189	36.48
523.644	36.83
524.099	37.49
524.553	37.53
525.008	36.5
525.462	36.98
525.917	34.74
526.372	36.12
526.826	35.92
527.281	35.55
527.735	37.32
528.19	35.93
528.644	36.65
529.098	32.67
529.553	35.77
530.007	35.9
530.461	37.43
530.916	35.69
531.37	36.34
531.824	36.51
532.278	34.13
532.732	36.06
533.186	37.49
533.641	36.52
534.095	36.18
534.549	36.31
535.003	36.54
535.457	37.03
535.911	35
536.365	35.29
536.818	34.73
537.272	36
537.726	35.9
538.18	33.21
538.634	37.92
539.087	36.58
539.541	35.2
539.995	35.68
540.449	37.01
540.902	36.78
541.356	36.99
541.809	37.29
542.263	34.75
542.716	36.25
543.17	37.92
543.623	36.34
544.077	36.8
544.53	37.74
544.984	38.16
545.437	34.59
545.89	37.69
546.344	34.05
546.797	39.29
547.25	38.25
547.703	35.46
548.157	37.54
548.61	38.68
549.063	38.08
549.516	38.89
549.969	38.78
550.422	39.5
550.875	38.5
551.328	39.45
551.781	39.15
552.234	38.44
552.687	39.66
553.14	37.89
553.592	40.05
554.045	41.78
554.498	40.41
554.951	41.3
555.404	40.88
555.856	40.87
556.309	39.59
556.762	39.33
557.214	42.6
557.667	40.26
558.119	40.93
558.572	40.96
559.024	41.2
559.477	40.99
559.929	39.52
560.382	41.99
560.834	41
561.286	41.1
561.739	40.94
562.191	43.4
562.643	40.72
563.095	41.29
563.548	40.74
564	40.86
564.452	41.12
564.904	41.63
565.356	40.24
565.808	41.85
566.26	42.68
566.712	40.92
567.164	40.03
567.616	41.33
568.068	44.76
568.52	40.51
568.972	41.88
569.424	42.3
569.876	40.72
570.327	37.66
570.779	39.18
571.231	41.01
571.682	40.97
572.134	38.31
572.586	39.68
573.037	38.93
573.489	40.88
573.941	39.84
574.392	39.12
574.844	38.84
575.295	37.59
575.746	38.84
576.198	38.88
576.649	39.87
577.101	38.62
577.552	39.71
578.003	38.68
578.454	38.65
578.906	39.77
579.357	40.87
579.808	39.92
580.259	40.41
580.71	41.01
581.161	38.09
581.612	40.04
582.064	40.52
582.515	40.84
582.965	40.51
583.416	43.86
583.867	43.34
584.318	43.06
584.769	42.72
585.22	42.07
585.671	41.49
586.122	42.99
586.572	44.58
587.023	45.04
587.474	44.99
587.924	44.86
588.375	43.67
588.826	44.64
589.276	43.76
589.727	45.42
590.177	44.35
590.628	45.12
591.078	46.22
591.529	44.57
591.979	44.94
592.429	45.36
592.88	45.43
593.33	47.31
593.78	48.82
594.231	49
594.681	47.21
595.131	45.33
595.581	46.31
596.031	45.16
596.481	47.91
596.932	46.91
597.382	46.6
597.832	46.3
598.282	45.72
598.732	47.21
599.182	44.92
599.632	46.18
600.081	47.58
600.531	46.81
600.981	48.39
601.431	47.62
601.881	45.94
602.33	45.7
602.78	45.77
603.23	47.03
603.679	47.47
604.129	46.84
604.579	49.3
605.028	48.13
605.478	46.73
605.927	46.88
606.377	46.55
606.826	47.23
607.276	46.73
607.725	49.52
608.175	46.34
608.624	48.6
609.073	45.1
609.522	46.98
609.972	46.95
610.421	47.39
610.87	48.1
611.319	48.59
611.768	47.95
612.218	45.95
612.667	48.38
613.116	46.55
613.565	48.36
614.014	47.03
614.463	48.19
614.912	47.05
615.361	48.76
615.81	47.71
616.258	47.45
616.707	48.65
617.156	48.62
617.605	46.64
618.054	47.43
618.502	46.02
618.951	46.52
619.4	48.05
619.848	46.62
620.297	47.26
620.745	47.87
621.194	46.56
621.642	45.74
622.091	47.94
622.539	46.16
622.988	47.62
623.436	47.66
623.885	47.28
624.333	46.68
624.781	47.57
625.23	47.46
625.678	47.8
626.126	47.5
626.574	48.62
627.022	48.3
627.471	45.76
627.919	47.61
628.367	47.92
628.815	46.8
629.263	47.55
629.711	46.59
630.159	47.19
630.607	46.57
631.055	47.47
631.503	48.3
631.95	47.44
632.398	47.57
632.846	48.12
633.294	46.74
633.742	46.89
634.189	47.64
634.637	47.92
635.085	48.77
635.532	47.45
635.98	47.87
636.427	47.08
636.875	48.62
637.323	47.79
637.77	47.37
638.217	46.39
638.665	48.55
639.112	48.64
639.56	47.75
640.007	47.48
640.454	49.85
640.902	47.56
641.349	47.87
641.796	48.76
642.243	48.16
642.69	46.95
643.138	47.7
643.585	46.85
644.032	48.26
644.479	48.43
644.926	48.02
645.373	46.75
645.82	48.35
646.267	47.68
646.714	47.81
647.161	48.64
647.607	48.68
648.054	48.84
648.501	48.66
648.948	47.7
649.395	48.48
649.841	47.85
650.288	48.15
650.735	47.01
651.181	48.59
651.628	48.23
652.075	47.58
652.521	48.51
652.968	48.2
653.414	47.19
653.861	48.27
654.307	49.02
654.753	47.82
655.2	47.94
655.646	49.01
656.092	47.39
656.539	47.58
656.985	48.06
657.431	47.64
657.877	48.73
658.324	47.11
658.77	49.35
659.216	48.34
659.662	48.99
660.108	48.64
660.554	47.26
661	47.33
661.446	47.44
661.892	48.64
662.338	47.98
662.784	49.25
663.23	47.79
663.675	48.87
664.121	49.15
664.567	47.48
665.013	47.97
665.458	48.02
665.904	49
666.35	48.9
666.795	47.33
667.241	48.24
667.687	48.99
668.132	48.21
668.578	48.42
669.023	46.84
669.469	48
669.914	47.66
670.359	48.26
670.805	48.36
671.25	48.87
671.695	46.56
672.141	48.04
672.586	48.74
673.031	48.76
673.476	48.28
673.922	48.09
674.367	48.51
674.812	47.59
675.257	47.72
675.702	47.45
676.147	47.16
676.592	47.86
677.037	47.23
677.482	48
677.927	47.8
678.372	48.17
678.817	47.93
679.261	48.75
679.706	47.76
680.151	46.15
680.596	48.19
681.04	47.7
681.485	47.83
681.93	47.51
682.374	47.91
682.819	48.21
683.264	48.8
683.708	48.67
684.153	48.04
684.597	47.03
685.042	48.21
685.486	46.81
685.93	47.31
686.375	49.09
686.819	47.03
687.263	49.25
687.708	47.3
688.152	48.92
688.596	46.68
689.04	47.86
689.485	49.35
689.929	49.32
690.373	47.47
690.817	48.03
691.261	48.13
691.705	47.65
692.149	47.53
692.593	47.6
693.037	47.65
693.481	47.85
693.925	47.11
694.369	48.71
694.812	47.04
695.256	48.04
695.7	48.03
696.144	47.66
696.587	48.24
697.031	48.38
697.475	48.74
697.918	47.67
698.362	46.51
698.806	46.93
699.249	47.44
699.693	48.38
700.136	48.18
700.58	47.46
701.023	47.1
701.466	47.77
701.91	47.05
702.353	49.07
702.796	47.42
703.24	47.75
703.683	47.06
704.126	48.66
704.569	46.89
705.013	47.68
705.456	48.17
705.899	47.87
706.342	48.46
706.785	47.91
707.228	47.29
707.671	47.18
708.114	46.65
708.557	48.19
709	46.93
709.443	48.03
709.886	48.39
710.328	46.77
710.771	47.74
711.214	47.68
711.657	46.99
712.099	46.88
712.542	48.03
712.985	47.85
713.427	46.64
713.87	47.26
714.313	47.17
714.755	47.1
715.198	46.65
715.64	47.54
716.083	45.77
716.525	47.33
716.967	46.9
717.41	48.33
717.852	46.67
718.295	46.81
718.737	47.71
719.179	46.29
719.621	46.86
720.063	46.53
720.506	47.51
720.948	47.66
721.39	45.88
721.832	46.74
722.274	47.22
722.716	47.9
723.158	46.61
723.6	46.43
724.042	47.19
724.484	47.98
724.926	47.06
725.368	47.42
725.81	47.32
726.251	47.38
726.693	47.67
727.135	48.05
727.577	46.99
728.018	47.45
728.46	46.69
728.902	47.14
729.343	46.84
729.785	46.63
730.226	46.19
730.668	46.04
731.109	47.37
731.551	45.85
731.992	46.1
732.434	45.69
732.875	46.07
733.316	46.04
733.758	46.09
734.199	45.15
734.64	47.96
735.081	45.8
735.523	46.13
735.964	46.68
736.405	46.48
736.846	46.5
737.287	46.5
737.728	46.39
738.169	45.93
738.61	46.97
739.051	46
739.492	46.01
739.933	45.84
740.374	46.34
740.815	45.45
741.256	46.02
741.696	46.94
742.137	46.33
742.578	45.48
743.019	45.27
743.459	45.26
743.9	46.21
744.341	45.53
744.781	46.71
745.222	46.62
745.662	46.41
746.103	47
746.543	45.51
746.984	46.97
747.424	46.09
747.865	45.94
748.305	45.93
748.745	46.18
749.186	45.57
749.626	46.82
750.066	46.09
750.506	45.49
750.947	45.9
751.387	45.92
751.827	45.73
752.267	45.21
752.707	46.5
753.147	46.26
753.587	45.78
754.027	46.79
754.467	45.67
754.907	46.67
755.347	46.45
755.787	45.37
756.227	46.12
756.667	44.57
757.107	45.65
757.546	45.13
757.986	45.64
758.426	46.74
758.865	45.51
759.305	44.74
759.745	47
760.184	47.58
760.624	46.09
761.063	45.27
761.503	45.82
761.943	45.32
762.382	46.71
762.821	46.49
763.261	45.54
763.7	45.8
764.14	45.37
764.579	45.6
765.018	46.29
765.457	45.39
765.897	45.03
766.336	46.72
766.775	45.14
767.214	45.44
767.653	44.9
768.092	46.93
768.531	45.92
768.97	45.45
769.409	45.02
769.848	45.7
770.287	45.86
770.726	45.9
771.165	46.19
771.604	45.13
772.043	45.59
772.482	45.12
772.92	46.18
773.359	46.01
773.798	43.96
774.237	45.7
774.675	44.77
775.114	45.81
775.553	45.65
775.991	45.13
776.43	45.36
776.868	45.77
777.307	45.4
777.745	45.64
778.184	45.4
778.622	45.5
779.06	45.12
779.499	45.34
779.937	45.47
780.375	45.64
780.814	45.62
781.252	45.41
781.69	44.66
782.128	45.99
782.566	45.4
783.004	46.66
783.443	45.35
783.881	45.1
784.319	45.33
784.757	45.68
785.195	45.92
785.633	44.45
786.071	45.67
786.508	45.56
786.946	44.79
787.384	46.25
787.822	44.65
788.26	45.25
788.697	44.83
789.135	45.88
789.573	44.01
790.011	44.53
790.448	44.68
790.886	45.57
791.323	44.98
791.761	45.89
792.198	45.36
792.636	45.13
793.073	44.92
793.511	45
793.948	45.55
794.386	44.28
794.823	44.59
795.26	44.18
795.698	44.3
796.135	45.99
796.572	44.79
797.009	44.74
797.446	43.79
797.884	45.4
798.321	44.85
798.758	45.13
799.195	45.6
799.632	45.82
800.069	44.4
800.506	44.33
800.943	44.41
801.38	45.26
801.817	44.86
802.254	44.43
802.69	44.76
803.127	44.33
803.564	45.48
804.001	44.62
804.438	44.61
804.874	44.44
805.311	44.42
805.748	44.97
806.184	44.76
806.621	44.51
807.057	44.79
807.494	44.14
807.93	44.74
808.367	45.25
808.803	43.81
809.24	44.66
809.676	44.91
810.112	43.93
810.549	44.97
810.985	43.87
811.421	45.22
811.857	43.59
812.294	44.83
812.73	43.85
813.166	44.17
813.602	44.49
814.038	43.68
814.474	44.68
814.91	44.94
815.346	45.11
815.782	43.68
816.218	44.25
816.654	43.81
817.09	45.35
817.526	43.66
817.962	44.59
818.398	44
818.833	45.11
819.269	43.89
819.705	44.33
820.141	44.19
820.576	44.97
821.012	45.78
821.447	44.1
821.883	44.52
822.319	43.79
822.754	43.63
823.19	44.34
823.625	43.23
824.061	43.89
824.496	43.95
824.931	43.74
825.367	44.25
825.802	44.34
826.237	43.89
826.673	44
827.108	44.47
827.543	44.85
827.978	43.74
828.413	44.11
828.849	43.41
829.284	43.53
829.719	44.13
830.154	43.95
830.589	43.83
831.024	44.64
831.459	44.36
831.894	43.51
832.329	44.39
832.763	44.74
833.198	44.12
833.633	43.46
834.068	43.78
834.503	44.12
834.937	44.01
835.372	43.88
835.807	44.16
836.241	45.4
836.676	44.05
837.111	44.64
837.545	44.26
837.98	43.51
838.414	43.02
838.849	43.94
839.283	43.3
839.717	44.17
840.152	44.09
840.586	44.01
841.021	43.38
841.455	43.41
841.889	43.35
842.323	43.15
842.758	43.35
843.192	44.05
843.626	44.03
844.06	44.25
844.494	43.35
844.928	43.92
845.362	43.12
845.796	44.27
846.23	42.29
846.664	43.32
847.098	44.03
847.532	43.72
847.966	43.94
848.4	42.89
848.834	43.9
849.267	43.16
849.701	43.5
850.135	43.56
850.569	43.55
851.002	43.3
851.436	42.81
851.87	43.38
852.303	43.82
852.737	43.49
853.17	43.8
853.604	42.5
854.037	44.34
854.471	43.11
854.904	43.07
855.337	43.13
855.771	43.01
856.204	43.54
856.637	43.2
857.071	43.59
857.504	43.82
857.937	42.74
858.37	44.07
858.804	44.03
859.237	43.27
859.67	43.3
860.103	43.79
860.536	42.73
860.969	43.32
861.402	42.91
861.835	44.13
862.268	44.03
862.701	44.06
863.134	43.16
863.566	44.04
863.999	43
864.432	43.46
864.865	43.56
865.298	42.87
865.73	43.56
866.163	42.71
866.596	43.91
867.028	43.1
867.461	43.96
867.893	43.26
868.326	43.19
868.758	42.93
869.191	43.34
869.623	43.12
870.056	42.93
870.488	42.04
870.92	42.92
871.353	42.67
871.785	42.65
872.217	42.8
872.65	43.1
873.082	43.27
873.514	43.14
873.946	43.28
874.378	43.38
874.81	42.16
875.243	43.26
875.675	43.11
876.107	42.93
876.539	42.37
876.971	42.59
877.403	42.65
877.834	43.06
878.266	43.04
878.698	43.4
879.13	43.29
879.562	42.58
879.994	42.52
880.425	43.01
880.857	43.11
881.289	42.71
881.72	42.92
882.152	42.52
882.584	42.24
883.015	41.92
883.447	42.37
883.878	43.18
884.31	42.98
884.741	41.93
885.173	42.17
885.604	43.1
886.035	43.08
886.467	42.56
886.898	42.86
887.329	42.82
887.76	43.34
888.192	43.39
888.623	42.85
889.054	42.24
889.485	42.86
889.916	42.98
890.347	42.51
890.778	43.09
891.209	42.36
891.64	41.86
892.071	42.5
892.502	42.52
892.933	42.03
893.364	42.16
893.795	42.05
894.226	42.17
894.657	43.15
895.087	42.8
895.518	41.75
895.949	42.63
896.38	42.1
896.81	41.94
897.241	42.89
897.671	42.32
898.102	42.59
898.533	42.05
898.963	42.44
899.394	42.53
899.824	42.38
900.254	41.53
900.685	42.18
901.115	42.51
901.546	42.37
901.976	42.24
902.406	42.34
902.836	42.28
903.267	41.86
903.697	42.15
904.127	42.08
904.557	41.81
904.987	42
905.417	42.46
905.847	42.5
906.277	42.41
906.707	41.2
907.137	41.77
907.567	41.99
907.997	42.31
908.427	42.06
908.857	42.08
909.287	41.56
909.717	41.89
910.146	42.06
910.576	41.89
911.006	41.74
911.436	42.05
911.865	41.86
912.295	41.88
912.724	42.5
913.154	42.7
913.584	42.37
914.013	41.88
914.443	42.13
914.872	41.94
915.302	42.07
915.731	42.05
916.16	42.02
916.59	41.62
917.019	42.22
917.448	41.73
917.878	42.01
918.307	41.56
918.736	41.32
919.165	41.76
919.594	41.77
920.023	41.93
920.452	41.68
920.882	42.06
921.311	41.56
921.74	41.71
922.169	41.57
922.597	41.95
923.026	42.45
923.455	41.57
923.884	41.65
924.313	42.08
924.742	41.58
925.171	41.63
925.599	41.26
926.028	41.97
926.457	41.91
926.885	41.1
927.314	41.78
927.743	41.56
928.171	41.62
928.6	42.07
929.028	41.37
929.457	41.75
929.885	41.85
930.314	41.47
930.742	41.51
931.17	41.45
931.599	41.36
932.027	41.59
932.455	40.78
932.884	41.15
933.312	41.61
933.74	41.31
934.168	41.61
934.596	41.03
935.025	41.62
935.453	42.27
935.881	41.51
936.309	41.22
936.737	41.23
937.165	41.59
937.593	41.16
938.021	40.48
938.449	41.41
938.876	41.23
939.304	41.01
939.732	41.45
940.16	40.55
940.588	40.89
941.015	41.08
941.443	41.66
941.871	40.83
942.298	40.79
942.726	40.76
943.154	40.57
943.581	40.78
944.009	40.84
944.436	41.42
944.864	41.28
945.291	41.52
945.718	40.65
946.146	41.17
946.573	40.4
947.001	40.52
947.428	40.73
947.855	41.26
948.282	41.41
948.71	41.92
949.137	40.78
949.564	40.96
949.991	41.22
950.418	40.86
950.845	40.56
951.272	41.43
951.699	40.11
952.126	40.99
952.553	40.21
952.98	40.52
953.407	40.2
953.834	40.58
954.261	40.56
954.688	41.01
955.114	40.86
955.541	40.83
955.968	40.76
956.395	40.93
956.821	40.46
957.248	40.68
957.674	41.19
958.101	41.26
958.528	40.75
958.954	40.46
959.381	40.95
959.807	40.58
960.234	40.82
960.66	41.16
961.086	40.54
961.513	40.34
961.939	41.16
962.365	40.19
962.792	40.75
963.218	40.46
963.644	41.22
964.07	41.13
964.496	40.62
964.923	40.18
965.349	40.33
965.775	41.26
966.201	40.57
966.627	40.36
967.053	40.57
967.479	40.48
967.905	40.29
968.331	40.74
968.756	40.02
969.182	40.39
969.608	40.49
970.034	40.36
970.46	39.86
970.885	40.33
971.311	40.32
971.737	39.49
972.162	40.07
972.588	39.83
973.014	39.88
973.439	40.44
973.865	39.81
974.29	40.32
974.716	39.76
975.141	40.08
975.567	40.29
975.992	40.57
976.417	40.06
976.843	40.17
977.268	40.04
977.693	40.24
978.119	40.14
978.544	40.63
978.969	40.28
979.394	40.29
979.819	40.1
980.244	39.88
980.669	40.66
981.095	39.9
981.52	40.55
981.945	40.23
982.369	39.93
982.794	39.77
983.219	40.43
983.644	39.83
984.069	39.95
984.494	39.97
984.919	39.73
985.343	40.45
985.768	39.86
986.193	39.49
986.618	39.67
987.042	39.29
987.467	40.47
987.891	39.48
988.316	39.91
988.741	40.11
989.165	39.67
989.59	39.79
990.014	40.07
990.438	40
990.863	39.87
991.287	40.31
991.712	40.8
992.136	39.96
992.56	40.22
992.984	40.37
993.409	39.95
993.833	40.21
994.257	39.97
994.681	39.95
995.105	40.44
995.529	39.39
995.953	40.01
996.377	39.71
996.801	39.71
997.225	40.05
997.649	39.84
998.073	39.82
998.497	39.94
998.921	40.01
999.345	40.43
999.769	39.89
1000.192	40.01
1000.616	40.19
1001.04	39.84
1001.464	40.15
1001.887	39.7
1002.311	40.62
1002.734	39.26
1003.158	39.44
1003.582	39.76
1004.005	40.15
1004.429	39.74
1004.852	39.67
1005.275	40.01
1005.699	39.56
1006.122	39.44
1006.546	39.76
1006.969	39.58
1007.392	39.35
1007.815	39.91
1008.239	40.05
1008.662	40.05
1009.085	39.43
1009.508	39.62
1009.931	39.7
1010.354	39.6
1010.778	39.25
1011.201	39.25
1011.624	39.47
1012.047	39.23
1012.469	39.6
1012.892	39.53
1013.315	39.34
1013.738	39.34
1014.161	39.24
1014.584	39.46
1015.007	39.97
1015.429	39.59
1015.852	38.78
1016.275	38.93
1016.697	39.36
1017.12	39.28
1017.543	39.98
1017.965	40.16
1018.388	39.26
1018.81	38.96
1019.233	39.24
1019.655	39.46
1020.078	39.03
1020.5	39.32
1020.922	39.2
1021.345	39.38
1021.767	39.57
1022.189	39.06
1022.612	39.16
1023.034	39.41
1023.456	39.49
1023.878	39.43
1024.301	40.07
1024.723	39.37
1025.145	39.37
1025.567	39.18
1025.989	39.07
1026.411	39.15
1026.833	39.32
1027.255	38.79
1027.677	39.5
1028.099	39.25
1028.52	39.09
1028.942	39.21
1029.364	39.1
1029.786	39.9
1030.208	39.41
1030.629	40.2
1031.051	39.4
1031.473	38.99
1031.894	38.83
1032.316	38.8
1032.738	38.99
1033.159	38.96
1033.581	38.54
1034.002	38.9
1034.424	38.93
1034.845	39.14
1035.267	39.52
1035.688	39.2
1036.109	39.26
1036.531	38.76
1036.952	39.18
1037.373	38.93
1037.794	39.44
1038.216	39.08
1038.637	39.04
1039.058	39.52
1039.479	40.12
1039.9	39.14
1040.321	39.36
1040.742	39.24
1041.163	39.2
1041.584	39.28
1042.005	38.88
1042.426	39.41
1042.847	38.16
1043.268	39.34
1043.689	39.25
1044.11	38.87
1044.53	39.5
1044.951	39.15
1045.372	38.72
1045.793	38.93
1046.213	39.57
1046.634	38.61
1047.055	39.66
1047.475	39.28
1047.896	39.25
1048.316	38.39
1048.737	39.39
1049.157	38.88
1049.578	38.98
1049.998	39.21
1050.419	38.74
1050.839	38.95
1051.259	38.36
1051.68	38.93
1052.1	39.28
1052.52	38.93
1052.94	38.72
1053.361	38.58
1053.781	38.55
1054.201	37.96
1054.621	38.68
1055.041	38.23
1055.461	38.48
1055.881	39.19
1056.301	39.03
1056.721	38.79
1057.141	38.06
1057.561	40.21
1057.981	38.11
1058.401	38.21
1058.82	38.08
1059.24	38.46
1059.66	38.35
1060.08	38.95
1060.499	38.4
1060.919	38.96
1061.339	38.94
1061.758	39.1
1062.178	39.01
1062.598	38.77
1063.017	38.58
1063.437	38.51
1063.856	39.16
1064.276	38.27
1064.695	37.97
1065.114	38.85
1065.534	38.14
1065.953	38.26
1066.372	38.14
1066.792	38.15
1067.211	38.04
1067.63	38.28
1068.049	39.58
1068.469	38.33
1068.888	38.55
1069.307	39.6
1069.726	38.27
1070.145	39.26
1070.564	38.36
1070.983	39.05
1071.402	38.27
1071.821	38.25
1072.24	38.33
1072.659	38.53
1073.078	37.82
1073.496	37.81
1073.915	38.71
1074.334	38.54
1074.753	36.47
1075.171	37.48
1075.59	37.17
1076.009	38.86
1076.427	38.24
1076.846	38.62
1077.265	37.8
1077.683	37.47
1078.102	38.37
1078.52	37.53
1078.939	38.98
1079.357	38.27
1079.776	37.6
1080.194	38.41
1080.612	39.11
1081.031	38.54
1081.449	37.68
1081.867	38.5
1082.285	38.76
1082.704	37.57
1083.122	38.2
1083.54	38.67
1083.958	38.8
1084.376	37.85
1084.794	37.14
1085.212	37.18
1085.63	38.37
1086.048	37.16
1086.466	38.01
1086.884	37.63
1087.302	37.52
1087.72	36.74
1088.138	37.42
1088.555	37.73
1088.973	38.21
1089.391	37.93
1089.809	37.85
1090.226	36.92
1090.644	37.98
1091.062	38.37
1091.479	38.5
1091.897	36.55
1092.314	37.62
1092.732	35.98
1093.15	37.7
1093.567	37.63
1093.984	37.3
1094.402	36.1
1094.819	37.81
1095.237	37.39
1095.654	36.97
1096.071	37.02
1096.488	37.45
1096.906	37.84
1097.323	37.96
1097.74	35.31
1098.157	37.62
1098.574	36.94
1098.991	38.76
1099.409	35.76
1099.826	37.29
1100.243	36.22
1100.66	37.05
1101.077	37.15
1101.494	37.38
1101.91	36.11
1102.327	37.87
1102.744	34.67
1103.161	38.5
1103.578	34.33
1103.994	35.1
1104.411	38.34
1104.828	37.57
1105.245	35.11
1105.661	37.41
1106.078	35.19
1106.494	35.73
1106.911	36.52
1107.328	35.26
1107.744	35.51
1108.161	35.51
1108.577	37.35
1108.993	34.82
1109.41	37.84
1109.826	34.59
1110.242	35.41
1110.659	34.28
1111.075	37.66
1111.491	34.3
1111.908	34.7
1112.324	36.79
1112.74	27.24
1113.156	34.7
1113.572	34.94
1113.988	35.37
1114.404	35.85
1114.82	36.02
1115.236	37.26
1115.652	37.22
1116.068	37.16
1116.484	30.12
1116.9	40.77
1117.316	32.55
1117.732	14.52
1118.147	75
1118.563	75
1118.979	9.37
