Data from JCR0032_White1_Reflection_00003.txt Node
Date: Fri Jul 31 14:47:53 ACST 2020
User: Stacey Dix
Spectrometer: MAYP113282
Scans to average: 1
Trigger mode: 0
Integration Time (sec): 1.000000E-1
Electric dark correction enabled: true
Boxcar width: 0
XAxis mode: Wavelengths
Number of Pixels in Spectrum: 2068
>>>>>Begin Spectral Data<<<<<
198.791	0
199.266	33.33
199.74	400
200.215	200
200.69	41.51
201.164	11.32
201.639	29.33
202.114	23.17
202.588	10.98
203.063	35.96
203.537	5.26
204.012	5.33
204.486	29.17
204.961	16.22
205.435	21.43
205.909	18.45
206.384	23.36
206.858	19.74
207.332	-14.77
207.807	19.33
208.281	19.49
208.755	6.77
209.229	26.62
209.703	3.67
210.177	15.04
210.651	-3.12
211.126	25.93
211.6	17.73
212.074	18.42
212.548	35.25
213.021	26.32
213.495	12.99
213.969	24.68
214.443	24.7
214.917	24.34
215.391	19.77
215.864	8.19
216.338	9.82
216.812	23.04
217.286	20.83
217.759	14.29
218.233	17.39
218.706	11.27
219.18	11.07
219.654	12.8
220.127	16.48
220.6	8.75
221.074	2.68
221.547	7.99
222.021	12.38
222.494	9.86
222.967	6.87
223.441	4.35
223.914	13.98
224.387	11.97
224.86	3.86
225.334	0.91
225.807	10.06
226.28	6.18
226.753	8.23
227.226	8.29
227.699	3.79
228.172	6.98
228.645	6.05
229.118	4.65
229.591	4.26
230.064	4.41
230.537	4.4
231.01	5.25
231.482	3.98
231.955	1.56
232.428	6.02
232.901	3.88
233.373	3.58
233.846	4.82
234.319	4.67
234.791	3.99
235.264	4.16
235.736	5.32
236.209	5.51
236.681	5.23
237.154	5.56
237.626	3.71
238.099	3.59
238.571	5.26
239.044	5.32
239.516	4.71
239.988	4.18
240.46	5.21
240.933	3.3
241.405	4.02
241.877	4.36
242.349	4.95
242.821	4.9
243.293	4.76
243.765	4.55
244.237	3.76
244.71	3
245.181	3.6
245.653	4.9
246.125	4.72
246.597	3.88
247.069	4.97
247.541	4.86
248.013	4.13
248.485	4.42
248.956	4.26
249.428	3.91
249.9	4.08
250.371	4.57
250.843	4
251.315	4.48
251.786	3.89
252.258	3.67
252.729	4.32
253.201	3.89
253.672	3.14
254.144	3.66
254.615	3.88
255.086	3.48
255.558	4.67
256.029	3.92
256.5	3.49
256.972	3.51
257.443	3.73
257.914	3.56
258.385	4.31
258.856	2.57
259.327	3.67
259.799	3.92
260.27	3.32
260.741	3.07
261.212	3.36
261.683	3.96
262.154	3.89
262.624	3.44
263.095	3.36
263.566	3.08
264.037	3.44
264.508	3.54
264.979	3.48
265.449	3.07
265.92	3.29
266.391	3.29
266.861	3.6
267.332	3.81
267.803	3.69
268.273	3.36
268.744	3.16
269.214	3.26
269.685	3.79
270.155	3.17
270.626	3.29
271.096	3.15
271.566	3.22
272.037	2.95
272.507	3.58
272.977	3.91
273.448	3.35
273.918	2.7
274.388	2.63
274.858	3.94
275.328	3.96
275.798	2.49
276.268	3.19
276.738	3.2
277.208	3.83
277.678	3.7
278.148	3.31
278.618	2.62
279.088	2.86
279.558	2.34
280.028	3.77
280.498	2.45
280.968	3.24
281.437	3.62
281.907	3.1
282.377	3.81
282.847	3.18
283.316	3.48
283.786	2.85
284.255	2.74
284.725	2.42
285.194	2.97
285.664	3.04
286.133	2.88
286.603	2.79
287.072	2.75
287.542	3.19
288.011	3.09
288.48	2.89
288.95	2.47
289.419	3.15
289.888	2.79
290.357	2.82
290.827	2.54
291.296	3.27
291.765	2.77
292.234	3.31
292.703	3.4
293.172	3.28
293.641	3.08
294.11	2.78
294.579	3.24
295.048	3.06
295.517	3.05
295.986	3.05
296.455	3.52
296.923	3.08
297.392	2.21
297.861	3.86
298.33	3.03
298.798	2.53
299.267	3.4
299.736	2.9
300.204	3.14
300.673	2.13
301.141	3.55
301.61	3.73
302.079	3.76
302.547	2.98
303.015	2.18
303.484	2.6
303.952	2.89
304.421	3.12
304.889	2.75
305.357	2.22
305.825	3.51
306.294	2.55
306.762	3.09
307.23	2.58
307.698	2.52
308.166	3.04
308.634	3.15
309.103	2.83
309.571	3.04
310.039	3.72
310.507	2.63
310.975	3.94
311.442	2.88
311.91	3.25
312.378	3.42
312.846	3.35
313.314	3.46
313.782	3.57
314.249	3.07
314.717	3.38
315.185	2.77
315.652	2.83
316.12	2.7
316.588	3.71
317.055	2.98
317.523	3.5
317.99	3.52
318.458	2.96
318.925	3.02
319.393	3.44
319.86	3.48
320.328	3.48
320.795	4.2
321.262	3.86
321.73	4.57
322.197	4.96
322.664	5.42
323.131	6.07
323.598	5.12
324.066	6.53
324.533	6.09
325	7.37
325.467	7
325.934	8.28
326.401	9.06
326.868	9.3
327.335	11.03
327.802	10.55
328.269	11.38
328.735	12.5
329.202	12.34
329.669	14.13
330.136	14.25
330.603	16.21
331.069	15.53
331.536	16.58
332.003	17.01
332.469	16.73
332.936	18.38
333.402	17.88
333.869	18.16
334.336	19.01
334.802	18.5
335.268	19.46
335.735	18.82
336.201	18.86
336.668	21.6
337.134	18.29
337.6	19.2
338.067	19.5
338.533	20.22
338.999	19
339.465	18.55
339.931	19.48
340.398	19.1
340.864	18.6
341.33	19.93
341.796	19.52
342.262	19.6
342.728	18.81
343.194	20.2
343.66	18.89
344.126	18.8
344.592	20.01
345.057	18.44
345.523	19.79
345.989	18.49
346.455	19.33
346.921	19.52
347.386	19.02
347.852	19.27
348.318	19.71
348.783	18.34
349.249	19.42
349.714	19.47
350.18	19.44
350.645	18.35
351.111	19
351.576	19.78
352.042	18.63
352.507	19.21
352.973	17.81
353.438	18.05
353.903	19.74
354.369	19.45
354.834	18.16
355.299	18.41
355.764	19.08
356.229	18.62
356.695	18.92
357.16	18.5
357.625	17.66
358.09	19.33
358.555	19.6
359.02	18.94
359.485	19.14
359.95	18.96
360.415	18.03
360.879	18.32
361.344	16.92
361.809	19.84
362.274	19.37
362.739	17.98
363.203	18.4
363.668	19.95
364.133	18.12
364.597	19.04
365.062	20.07
365.527	19.68
365.991	20.48
366.456	17.11
366.92	18.18
367.385	19.63
367.849	19.79
368.314	19.7
368.778	18.57
369.242	18.42
369.707	17.9
370.171	18.37
370.635	18.97
371.1	20.02
371.564	19.86
372.028	18.17
372.492	19.53
372.956	18.52
373.42	20.83
373.884	18.21
374.348	19.55
374.812	18.61
375.276	19.68
375.74	20.22
376.204	19.45
376.668	20.72
377.132	20.24
377.596	19.55
378.06	19.9
378.524	18.8
378.987	21.15
379.451	20.08
379.915	19.63
380.378	19.86
380.842	19.93
381.306	20.11
381.769	20.5
382.233	19.69
382.696	20.68
383.16	18.97
383.623	20.33
384.087	20.58
384.55	20.37
385.014	20.87
385.477	20.93
385.94	19.84
386.404	21.92
386.867	21.85
387.33	20.42
387.793	21.8
388.256	21.37
388.72	20.6
389.183	20.8
389.646	21.97
390.109	20.61
390.572	20.62
391.035	21.6
391.498	20.57
391.961	21.1
392.424	20.46
392.887	21.82
393.35	20.66
393.812	21.46
394.275	21.86
394.738	21.03
395.201	21.18
395.664	21.95
396.126	20.32
396.589	21.03
397.052	22.4
397.514	21.46
397.977	20.81
398.439	21.77
398.902	22.27
399.364	21.07
399.827	21.56
400.289	22.34
400.752	20.6
401.214	21.04
401.676	21.95
402.139	20.82
402.601	20
403.063	22.21
403.525	20.76
403.988	20.84
404.45	21.61
404.912	23.23
405.374	21.32
405.836	21.06
406.298	21.43
406.76	20.48
407.222	21.18
407.684	20.47
408.146	20.9
408.608	20.82
409.07	21.53
409.532	21.15
409.994	20.7
410.456	21.04
410.917	21.6
411.379	20.51
411.841	20.99
412.303	21.79
412.764	21.1
413.226	21.86
413.687	20.9
414.149	21.8
414.611	21.82
415.072	20.58
415.534	22.02
415.995	20.44
416.457	21.55
416.918	21.96
417.379	20.63
417.841	21.03
418.302	19.47
418.763	22.46
419.225	21.97
419.686	22.06
420.147	21.72
420.608	20.51
421.069	22.14
421.53	21.94
421.991	21.19
422.453	21.61
422.914	22.01
423.375	21.15
423.836	21.74
424.297	22.15
424.757	21.84
425.218	22.78
425.679	21.07
426.14	23.35
426.601	20.81
427.062	21.6
427.522	21.44
427.983	21.71
428.444	21.58
428.904	21.14
429.365	21.77
429.826	22.47
430.286	21.31
430.747	23.29
431.207	21.5
431.668	22.89
432.128	20.98
432.589	21.13
433.049	21.58
433.509	21.61
433.97	23.56
434.43	22.14
434.89	21.06
435.351	21.69
435.811	20.85
436.271	20.97
436.731	20.86
437.191	22.84
437.651	20.64
438.112	20.32
438.572	21.86
439.032	20.47
439.492	21.38
439.952	23.67
440.412	19.31
440.871	22.38
441.331	19.94
441.791	21.91
442.251	22.74
442.711	23.77
443.171	22.7
443.63	20.34
444.09	21.78
444.55	22.77
445.009	21.3
445.469	22.25
445.929	22.68
446.388	20.41
446.848	22.32
447.307	21.65
447.767	22.02
448.226	22.34
448.686	21.96
449.145	21.92
449.604	22.14
450.064	21.08
450.523	21.68
450.982	19.91
451.442	21.96
451.901	21.08
452.36	21.32
452.819	21.72
453.278	21.02
453.737	21.88
454.197	23.06
454.656	22.4
455.115	22.79
455.574	20.65
456.033	23.06
456.492	20.44
456.95	21.22
457.409	21.37
457.868	22.46
458.327	22.26
458.786	22.8
459.245	22.1
459.703	20.02
460.162	21.37
460.621	21.68
461.079	21.69
461.538	20.33
461.997	21.55
462.455	20.92
462.914	23.28
463.372	18.67
463.831	22.8
464.289	20.76
464.748	21.42
465.206	20.28
465.664	20.39
466.123	22.76
466.581	20.29
467.039	20.75
467.497	22.49
467.956	19.84
468.414	20.31
468.872	22
469.33	21.28
469.788	20.54
470.246	22.26
470.704	20.2
471.162	21.55
471.62	22.35
472.078	20.66
472.536	21.1
472.994	21.88
473.452	20.76
473.91	20.45
474.368	19.81
474.826	20.53
475.283	20.7
475.741	20.96
476.199	20.49
476.656	22.89
477.114	19.09
477.572	19.58
478.029	20.97
478.487	21.66
478.944	17.65
479.402	20.01
479.859	19.93
480.317	21.7
480.774	21.46
481.232	21.3
481.689	20.4
482.146	20.12
482.604	20.9
483.061	19.18
483.518	19.95
483.975	21.89
484.433	19.82
484.89	21.41
485.347	19.63
485.804	20.67
486.261	21.94
486.718	20.07
487.175	20.11
487.632	21.4
488.089	20.2
488.546	19.2
489.003	19.37
489.46	21.02
489.917	20.74
490.373	20.5
490.83	19.88
491.287	19
491.744	21.54
492.2	21.34
492.657	22.47
493.114	20.73
493.57	22.28
494.027	20.18
494.484	20.88
494.94	22.42
495.397	21.97
495.853	19.58
496.31	21.23
496.766	21.13
497.222	19.03
497.679	21.56
498.135	19.4
498.591	21.56
499.048	20.64
499.504	20.8
499.96	22.56
500.416	21.34
500.872	20.23
501.329	22.72
501.785	21.72
502.241	21.21
502.697	19.93
503.153	20.92
503.609	22.35
504.065	19.99
504.521	19.52
504.977	21.15
505.432	19.63
505.888	20.19
506.344	20.59
506.8	20.64
507.256	20.86
507.711	19.94
508.167	20.19
508.623	20.78
509.078	22.35
509.534	20.89
509.99	19.7
510.445	21.23
510.901	21.44
511.356	21.73
511.812	20.56
512.267	20.71
512.722	22.21
513.178	20.31
513.633	21.94
514.089	21.7
514.544	21.67
514.999	22.03
515.454	19.64
515.91	20.83
516.365	20.48
516.82	20.05
517.275	20.57
517.73	21.63
518.185	20.03
518.64	20.71
519.095	21.69
519.55	19.39
520.005	21.58
520.46	20.91
520.915	20.53
521.37	20.18
521.825	20.33
522.28	20.77
522.734	21.48
523.189	20.43
523.644	21.03
524.099	21.49
524.553	21.21
525.008	19.6
525.462	21.96
525.917	21.03
526.372	20.71
526.826	21.16
527.281	22.54
527.735	21.22
528.19	20.81
528.644	21.94
529.098	22.68
529.553	21.78
530.007	19.91
530.461	20.56
530.916	21.84
531.37	20.75
531.824	20.41
532.278	21.59
532.732	22.06
533.186	21.16
533.641	21.51
534.095	22.4
534.549	21.94
535.003	22.81
535.457	20.11
535.911	22.52
536.365	21.4
536.818	21.2
537.272	21.01
537.726	21.6
538.18	21.25
538.634	22.21
539.087	20.99
539.541	21.28
539.995	21.73
540.449	23.22
540.902	21.95
541.356	21.83
541.809	20.7
542.263	20.96
542.716	20.55
543.17	20.89
543.623	20.56
544.077	22.39
544.53	20.96
544.984	21.49
545.437	21.59
545.89	21.17
546.344	20.89
546.797	23.27
547.25	21.72
547.703	22.09
548.157	22.75
548.61	22.65
549.063	20.37
549.516	22.21
549.969	23.64
550.422	22.29
550.875	22.24
551.328	22.68
551.781	22.69
552.234	22.4
552.687	21.43
553.14	23.06
553.592	22.15
554.045	20.97
554.498	22.73
554.951	22.41
555.404	21.64
555.856	22.12
556.309	22.78
556.762	21.77
557.214	21.41
557.667	21.6
558.119	21.88
558.572	22.76
559.024	21.78
559.477	23.36
559.929	22.43
560.382	22.66
560.834	21.75
561.286	23.92
561.739	22.05
562.191	24.07
562.643	21.25
563.095	23.17
563.548	22.18
564	22.48
564.452	21.93
564.904	22.18
565.356	22.57
565.808	21.67
566.26	23.72
566.712	22
567.164	24.05
567.616	23.1
568.068	21.96
568.52	22.2
568.972	21.1
569.424	23.3
569.876	23.33
570.327	22.98
570.779	23.27
571.231	21.55
571.682	23.97
572.134	22.83
572.586	22.09
573.037	22.34
573.489	22.19
573.941	22.59
574.392	22.81
574.844	22.63
575.295	22.44
575.746	23.43
576.198	23.37
576.649	22.68
577.101	22.91
577.552	22.31
578.003	23.01
578.454	23.49
578.906	23.68
579.357	23.69
579.808	22.87
580.259	22.75
580.71	23.09
581.161	22.49
581.612	22.66
582.064	22.44
582.515	22.41
582.965	23.09
583.416	23.7
583.867	22.7
584.318	21.79
584.769	22.87
585.22	23.21
585.671	22.47
586.122	22.32
586.572	23.14
587.023	22.39
587.474	24.16
587.924	22.82
588.375	23.68
588.826	24.54
589.276	23.21
589.727	22.95
590.177	22.98
590.628	23.64
591.078	21.92
591.529	24.1
591.979	22.27
592.429	22.86
592.88	22.65
593.33	22.68
593.78	22.36
594.231	22.95
594.681	23.96
595.131	22.41
595.581	23.2
596.031	22.98
596.481	22.89
596.932	22.4
597.382	21.54
597.832	23.54
598.282	22.48
598.732	23.44
599.182	23.09
599.632	22.53
600.081	22.98
600.531	23.29
600.981	22.64
601.431	22.41
601.881	22.78
602.33	22.87
602.78	23.69
603.23	23.08
603.679	21.56
604.129	22.84
604.579	22.81
605.028	22.12
605.478	22.15
605.927	22.66
606.377	22.69
606.826	22.44
607.276	23.25
607.725	23.63
608.175	24.29
608.624	22.3
609.073	22.78
609.522	22.18
609.972	22.52
610.421	21.99
610.87	23.13
611.319	22.31
611.768	23.64
612.218	22.28
612.667	23.16
613.116	23.41
613.565	22.71
614.014	23.57
614.463	23.13
614.912	22.88
615.361	22.16
615.81	22.88
616.258	23.75
616.707	23.03
617.156	22.61
617.605	23.35
618.054	23.71
618.502	21.81
618.951	22.59
619.4	22.85
619.848	22.23
620.297	23
620.745	22.33
621.194	22.87
621.642	23.19
622.091	22.95
622.539	23.03
622.988	22.99
623.436	22.9
623.885	22.73
624.333	23.31
624.781	22.09
625.23	22.95
625.678	22.92
626.126	23.04
626.574	22.58
627.022	22.34
627.471	22.41
627.919	22.41
628.367	22.71
628.815	23.02
629.263	21.83
629.711	22.52
630.159	23.6
630.607	23.17
631.055	23.11
631.503	23.19
631.95	22.96
632.398	23.71
632.846	23.1
633.294	23.81
633.742	24.03
634.189	22.46
634.637	22.58
635.085	22.97
635.532	22.18
635.98	23.26
636.427	23.12
636.875	23.44
637.323	22.96
637.77	22.17
638.217	22.92
638.665	22.31
639.112	22.37
639.56	22.97
640.007	23.22
640.454	22.75
640.902	22.87
641.349	22.69
641.796	23.3
642.243	22.79
642.69	22.87
643.138	22.8
643.585	23.03
644.032	23.12
644.479	22.87
644.926	23.4
645.373	22.42
645.82	23.08
646.267	22.3
646.714	23.17
647.161	23.58
647.607	22.63
648.054	23.45
648.501	21.83
648.948	23.09
649.395	22.8
649.841	23.41
650.288	22.94
650.735	22.65
651.181	23.32
651.628	22.8
652.075	22.47
652.521	22.67
652.968	23.28
653.414	23.05
653.861	23.3
654.307	22.37
654.753	22.92
655.2	23.27
655.646	23.09
656.092	23.38
656.539	23.04
656.985	23.02
657.431	23.2
657.877	23.7
658.324	23.06
658.77	23.52
659.216	23.21
659.662	23.41
660.108	22.7
660.554	22.73
661	23.38
661.446	22.93
661.892	23.33
662.338	23.3
662.784	23.45
663.23	22.5
663.675	22.54
664.121	23.05
664.567	22.35
665.013	23.12
665.458	22.53
665.904	23.55
666.35	22.89
666.795	23.55
667.241	22.86
667.687	23.15
668.132	22.8
668.578	22.48
669.023	22.64
669.469	23.36
669.914	22.68
670.359	22.36
670.805	23.68
671.25	22.96
671.695	22.78
672.141	23.01
672.586	22.97
673.031	22.92
673.476	23.37
673.922	22.65
674.367	22.59
674.812	23.78
675.257	23.11
675.702	22.37
676.147	22.83
676.592	23.63
677.037	22.7
677.482	23.84
677.927	23.22
678.372	22.97
678.817	23.4
679.261	22.04
679.706	22.91
680.151	22.55
680.596	23.77
681.04	23.02
681.485	23.33
681.93	22.98
682.374	23.11
682.819	22.5
683.264	22.95
683.708	23.57
684.153	23.63
684.597	23.52
685.042	23.3
685.486	23.25
685.93	23.63
686.375	22.37
686.819	22.73
687.263	22.72
687.708	23.7
688.152	23.65
688.596	23.21
689.04	23.23
689.485	23.04
689.929	23.19
690.373	23.93
690.817	23.14
691.261	23.37
691.705	23.06
692.149	23.05
692.593	22.92
693.037	23.16
693.481	23.06
693.925	22.56
694.369	23.53
694.812	22.55
695.256	22.97
695.7	22.87
696.144	23.22
696.587	23.05
697.031	23.68
697.475	23.35
697.918	23.38
698.362	23.6
698.806	23.52
699.249	23.87
699.693	22.95
700.136	23.56
700.58	23.69
701.023	23.05
701.466	23.72
701.91	23.4
702.353	23.1
702.796	23.19
703.24	23.39
703.683	22.91
704.126	23.95
704.569	22.79
705.013	23.25
705.456	23.5
705.899	23.33
706.342	23.45
706.785	23.01
707.228	23.66
707.671	22.56
708.114	23.11
708.557	22.98
709	23.42
709.443	23.77
709.886	22.73
710.328	22.84
710.771	23.23
711.214	23.13
711.657	23.55
712.099	23.39
712.542	23.08
712.985	23.73
713.427	23.07
713.87	24
714.313	23.56
714.755	23.25
715.198	23.14
715.64	23.36
716.083	23.49
716.525	23.32
716.967	23.64
717.41	23.73
717.852	23.62
718.295	22.91
718.737	23.83
719.179	23.04
719.621	23.22
720.063	23.21
720.506	23.02
720.948	23.7
721.39	23.85
721.832	23.31
722.274	23.9
722.716	23.71
723.158	22.65
723.6	23.39
724.042	23.74
724.484	23.41
724.926	23.45
725.368	22.77
725.81	22.89
726.251	22.85
726.693	23.41
727.135	23.8
727.577	23.53
728.018	23.85
728.46	23.64
728.902	23.13
729.343	23.46
729.785	23.59
730.226	22.97
730.668	23.18
731.109	24.05
731.551	23.78
731.992	23.15
732.434	23.45
732.875	23.8
733.316	23.54
733.758	23.43
734.199	23.33
734.64	23.82
735.081	22.74
735.523	23.12
735.964	23.39
736.405	22.96
736.846	23.53
737.287	22.98
737.728	23.24
738.169	23.24
738.61	23.75
739.051	23.71
739.492	22.92
739.933	23.26
740.374	23.1
740.815	23.97
741.256	23.75
741.696	23.24
742.137	23.28
742.578	24.14
743.019	23.62
743.459	23.42
743.9	23.22
744.341	23.4
744.781	23.79
745.222	23.46
745.662	23.4
746.103	24.21
746.543	23.16
746.984	23.59
747.424	23.14
747.865	24.2
748.305	23.55
748.745	24
749.186	23.32
749.626	23.75
750.066	23.53
750.506	23.45
750.947	24.3
751.387	23.46
751.827	22.86
752.267	23.65
752.707	23.31
753.147	23.97
753.587	23.44
754.027	24.15
754.467	23.62
754.907	23.78
755.347	24.13
755.787	23.98
756.227	24.22
756.667	24.48
757.107	24.02
757.546	23.95
757.986	23.59
758.426	24
758.865	24.31
759.305	23.33
759.745	24.32
760.184	23.82
760.624	23.75
761.063	24.29
761.503	23.95
761.943	23.96
762.382	23.72
762.821	23.53
763.261	23.81
763.7	24.04
764.14	23.45
764.579	24.05
765.018	24.48
765.457	23.66
765.897	23.69
766.336	24.12
766.775	24.02
767.214	23.78
767.653	24.13
768.092	24.2
768.531	23.96
768.97	23.76
769.409	23.45
769.848	24.07
770.287	23.44
770.726	24.15
771.165	24.36
771.604	24.06
772.043	23.72
772.482	24.15
772.92	23.81
773.359	23.84
773.798	24.3
774.237	23.68
774.675	24.03
775.114	23.85
775.553	24.65
775.991	23.73
776.43	23.88
776.868	23.86
777.307	23.79
777.745	23.92
778.184	24.4
778.622	23.88
779.06	24.21
779.499	24.08
779.937	24.17
780.375	23.99
780.814	24.42
781.252	23.72
781.69	24.23
782.128	23.89
782.566	23.54
783.004	23.71
783.443	24.12
783.881	24.35
784.319	23.86
784.757	23.87
785.195	24.01
785.633	25.18
786.071	24.46
786.508	24.06
786.946	24.15
787.384	24.62
787.822	24.17
788.26	24.42
788.697	23.67
789.135	23.97
789.573	24.26
790.011	24.41
790.448	24.3
790.886	24.54
791.323	24.76
791.761	24.03
792.198	23.93
792.636	23.97
793.073	24.26
793.511	24.34
793.948	25.19
794.386	24.62
794.823	24.54
795.26	24.6
795.698	24.34
796.135	24.63
796.572	24.81
797.009	24.68
797.446	24.66
797.884	24.59
798.321	24.52
798.758	24.85
799.195	24.51
799.632	24.6
800.069	24.89
800.506	24.95
800.943	24.65
801.38	24.72
801.817	24.58
802.254	24.45
802.69	24.6
803.127	24.52
803.564	24.38
804.001	24.08
804.438	24.62
804.874	24.54
805.311	24.77
805.748	24.7
806.184	24.72
806.621	24.7
807.057	24.95
807.494	24.42
807.93	24.61
808.367	24.72
808.803	24.55
809.24	24.92
809.676	24.93
810.112	24.14
810.549	25.02
810.985	25.28
811.421	24.79
811.857	24.68
812.294	24.75
812.73	24.64
813.166	24.75
813.602	24.95
814.038	24.13
814.474	24.5
814.91	24.77
815.346	24.72
815.782	24.93
816.218	24.22
816.654	24.62
817.09	25.02
817.526	24.88
817.962	24.49
818.398	24.77
818.833	25.07
819.269	25.5
819.705	25.12
820.141	24.51
820.576	25.05
821.012	25.26
821.447	24.66
821.883	25.07
822.319	24.93
822.754	25.12
823.19	24.5
823.625	24.96
824.061	25.53
824.496	24.66
824.931	25.53
825.367	24.86
825.802	24.95
826.237	25.25
826.673	25.28
827.108	25.18
827.543	24.97
827.978	25.33
828.413	25.05
828.849	25.19
829.284	24.85
829.719	25.06
830.154	25.09
830.589	25.01
831.024	24.71
831.459	24.64
831.894	25.25
832.329	25.83
832.763	25.49
833.198	25.07
833.633	25.32
834.068	25.34
834.503	24.94
834.937	24.62
835.372	25.45
835.807	25.72
836.241	24.98
836.676	25.6
837.111	25.49
837.545	25.16
837.98	25.89
838.414	25.3
838.849	25.1
839.283	24.91
839.717	25.34
840.152	25.38
840.586	25.32
841.021	25.13
841.455	25.2
841.889	25.32
842.323	25.69
842.758	25.81
843.192	25.37
843.626	25.67
844.06	26.3
844.494	25.89
844.928	25.9
845.362	25.43
845.796	25.91
846.23	25.7
846.664	25.38
847.098	25.64
847.532	25.66
847.966	25.44
848.4	25.72
848.834	25.89
849.267	25.54
849.701	25.15
850.135	25.73
850.569	25.57
851.002	25.86
851.436	26.44
851.87	26.05
852.303	25.92
852.737	25.83
853.17	25.8
853.604	25.87
854.037	26.07
854.471	25.75
854.904	26.07
855.337	25.69
855.771	25.54
856.204	25.71
856.637	25.58
857.071	25.44
857.504	26.11
857.937	26.46
858.37	25.41
858.804	26.25
859.237	26.04
859.67	26.32
860.103	26.02
860.536	26.24
860.969	25.32
861.402	25.89
861.835	26.02
862.268	25.81
862.701	26.18
863.134	25.62
863.566	26.11
863.999	26.22
864.432	26.24
864.865	26.19
865.298	25.74
865.73	26.1
866.163	26.52
866.596	26.03
867.028	26.62
867.461	26.32
867.893	26.34
868.326	25.84
868.758	26.13
869.191	25.96
869.623	25.64
870.056	26.25
870.488	26.42
870.92	26.14
871.353	26.27
871.785	26.55
872.217	26.09
872.65	26.02
873.082	26.32
873.514	26.04
873.946	26.25
874.378	25.82
874.81	26.68
875.243	26.39
875.675	26.71
876.107	26.38
876.539	26.06
876.971	25.63
877.403	26.08
877.834	26.5
878.266	26.31
878.698	26.36
879.13	26.85
879.562	26.36
879.994	26.63
880.425	26.6
880.857	26.08
881.289	26.25
881.72	26.43
882.152	26.48
882.584	26.16
883.015	26.32
883.447	26.36
883.878	26.69
884.31	26.44
884.741	26.39
885.173	26.76
885.604	26.55
886.035	26.25
886.467	26.07
886.898	26.56
887.329	26.4
887.76	26.68
888.192	26.66
888.623	26.83
889.054	26.55
889.485	27.1
889.916	26.42
890.347	26.43
890.778	26.38
891.209	26.99
891.64	26.26
892.071	26.8
892.502	26.88
892.933	26.43
893.364	26.91
893.795	26.78
894.226	26.45
894.657	26.17
895.087	26.52
895.518	26.95
895.949	26.76
896.38	26.71
896.81	26.94
897.241	27.09
897.671	26.89
898.102	27.07
898.533	26.98
898.963	26.48
899.394	27.13
899.824	27.24
900.254	26.76
900.685	26.94
901.115	27.11
901.546	27.22
901.976	27.05
902.406	27.43
902.836	26.96
903.267	26.97
903.697	27.4
904.127	26.91
904.557	27.16
904.987	26.96
905.417	27.6
905.847	27.12
906.277	26.96
906.707	27.36
907.137	26.85
907.567	27.06
907.997	27.77
908.427	27.21
908.857	27.53
909.287	27.29
909.717	26.93
910.146	27.4
910.576	27.61
911.006	27.18
911.436	27.34
911.865	27
912.295	27.44
912.724	27.23
913.154	27.4
913.584	27.6
914.013	27.36
914.443	27.41
914.872	26.9
915.302	27.48
915.731	27.58
916.16	27.79
916.59	27.42
917.019	27.76
917.448	27.29
917.878	27.16
918.307	27.94
918.736	27.59
919.165	27.4
919.594	27.4
920.023	27.59
920.452	27.31
920.882	27.57
921.311	27.69
921.74	27.68
922.169	27.45
922.597	27.67
923.026	27.34
923.455	27.92
923.884	27.73
924.313	27.89
924.742	27.47
925.171	27.84
925.599	27.81
926.028	27.5
926.457	27.91
926.885	27.67
927.314	27.83
927.743	27.66
928.171	27.7
928.6	27.86
929.028	27.65
929.457	28.06
929.885	27.66
930.314	27.56
930.742	27.29
931.17	27.64
931.599	27.51
932.027	27.53
932.455	27.17
932.884	27.44
933.312	27.65
933.74	27.2
934.168	27.4
934.596	27.43
935.025	27.59
935.453	27.21
935.881	27.65
936.309	27.68
936.737	27.98
937.165	27.28
937.593	27.83
938.021	27.99
938.449	27.8
938.876	27.74
939.304	27.85
939.732	27.66
940.16	27.11
940.588	27.56
941.015	27.48
941.443	27.99
941.871	28.38
942.298	27.67
942.726	27.35
943.154	27.66
943.581	28.07
944.009	27.79
944.436	27.82
944.864	28.15
945.291	27.85
945.718	28.18
946.146	27.61
946.573	27.68
947.001	27.73
947.428	28.1
947.855	27.98
948.282	28.09
948.71	27.72
949.137	28.23
949.564	27.72
949.991	27.78
950.418	27.69
950.845	27.76
951.272	27.82
951.699	27.83
952.126	27.8
952.553	28.15
952.98	27.92
953.407	27.88
953.834	27.93
954.261	27.24
954.688	28.17
955.114	28.07
955.541	28.04
955.968	27.89
956.395	27.45
956.821	28.1
957.248	28.06
957.674	27.81
958.101	28.4
958.528	27.73
958.954	27.78
959.381	27.98
959.807	28.01
960.234	27.83
960.66	27.57
961.086	27.84
961.513	28.15
961.939	28.18
962.365	27.93
962.792	27.57
963.218	27.58
963.644	28.47
964.07	28.19
964.496	28.13
964.923	28.37
965.349	28.31
965.775	28.02
966.201	27.94
966.627	28.04
967.053	27.94
967.479	28.16
967.905	28.31
968.331	28.02
968.756	28.44
969.182	27.98
969.608	28.46
970.034	28.27
970.46	28.7
970.885	28.2
971.311	28.61
971.737	28.17
972.162	28.6
972.588	28.32
973.014	28
973.439	28.15
973.865	27.97
974.29	28.36
974.716	28.24
975.141	28.58
975.567	28.48
975.992	28.28
976.417	28.13
976.843	28.37
977.268	28.68
977.693	28.66
978.119	28.23
978.544	28.5
978.969	28.45
979.394	28.45
979.819	28.53
980.244	28.61
980.669	28.41
981.095	28.18
981.52	28.71
981.945	28.61
982.369	28.19
982.794	28.45
983.219	28.73
983.644	28.61
984.069	28.58
984.494	28.87
984.919	28.72
985.343	28.56
985.768	28.42
986.193	28.72
986.618	28.42
987.042	28.92
987.467	28.52
987.891	28.55
988.316	28.72
988.741	28.81
989.165	28.55
989.59	28.93
990.014	28.87
990.438	28.29
990.863	28.88
991.287	28.96
991.712	29.35
992.136	28.87
992.56	28.97
992.984	28.66
993.409	28.67
993.833	28.83
994.257	29.02
994.681	29.04
995.105	28.65
995.529	29.14
995.953	28.79
996.377	29.01
996.801	29.44
997.225	28.83
997.649	29.03
998.073	29.12
998.497	28.83
998.921	28.94
999.345	28.75
999.769	29.21
1000.192	29.06
1000.616	29.07
1001.04	29.36
1001.464	29.36
1001.887	29.25
1002.311	29.13
1002.734	28.83
1003.158	29.15
1003.582	29.29
1004.005	28.9
1004.429	29.26
1004.852	29.33
1005.275	29.46
1005.699	29.37
1006.122	29.23
1006.546	29.32
1006.969	29.49
1007.392	29.15
1007.815	28.91
1008.239	29.42
1008.662	29.16
1009.085	29.5
1009.508	29.38
1009.931	29.53
1010.354	29.39
1010.778	29.39
1011.201	29.55
1011.624	29.31
1012.047	29.45
1012.469	29.35
1012.892	29.5
1013.315	29.38
1013.738	29.5
1014.161	29.61
1014.584	29.59
1015.007	29.53
1015.429	29.56
1015.852	29.58
1016.275	29.45
1016.697	29.77
1017.12	29.66
1017.543	29.41
1017.965	29.4
1018.388	29.78
1018.81	29.67
1019.233	29.71
1019.655	29.71
1020.078	29.86
1020.5	29.66
1020.922	29.81
1021.345	29.72
1021.767	29.62
1022.189	29.79
1022.612	30.03
1023.034	30.01
1023.456	29.57
1023.878	29.54
1024.301	30.19
1024.723	29.71
1025.145	29.84
1025.567	30.3
1025.989	30.19
1026.411	29.82
1026.833	30.15
1027.255	30.33
1027.677	30.06
1028.099	29.96
1028.52	29.94
1028.942	30.37
1029.364	29.61
1029.786	30.15
1030.208	30.35
1030.629	30.36
1031.051	30.4
1031.473	29.57
1031.894	30.33
1032.316	29.93
1032.738	29.88
1033.159	30.22
1033.581	29.97
1034.002	30.22
1034.424	30.56
1034.845	29.84
1035.267	30.14
1035.688	29.94
1036.109	29.83
1036.531	30.11
1036.952	30.67
1037.373	30.11
1037.794	29.89
1038.216	30.26
1038.637	30.22
1039.058	30.61
1039.479	30.36
1039.9	30.36
1040.321	30.32
1040.742	29.82
1041.163	30.19
1041.584	30.1
1042.005	29.9
1042.426	30.14
1042.847	30.26
1043.268	30.27
1043.689	30.88
1044.11	30.51
1044.53	30.38
1044.951	30.17
1045.372	30.23
1045.793	30.28
1046.213	30.58
1046.634	30.66
1047.055	30.49
1047.475	30.61
1047.896	30.53
1048.316	30.37
1048.737	30.64
1049.157	30.57
1049.578	30.72
1049.998	30.26
1050.419	30.99
1050.839	30.23
1051.259	30.26
1051.68	30.72
1052.1	30.24
1052.52	30.65
1052.94	30.9
1053.361	30.03
1053.781	30.5
1054.201	31.09
1054.621	30.71
1055.041	30.51
1055.461	30.41
1055.881	30.69
1056.301	30.69
1056.721	30.15
1057.141	30.88
1057.561	30.62
1057.981	31.12
1058.401	30.53
1058.82	30.11
1059.24	31.48
1059.66	30.03
1060.08	31.07
1060.499	30.74
1060.919	31.37
1061.339	30.59
1061.758	31.05
1062.178	30.32
1062.598	30.61
1063.017	30.29
1063.437	30.77
1063.856	30.57
1064.276	30.94
1064.695	31.07
1065.114	30.95
1065.534	30.99
1065.953	30.77
1066.372	31.1
1066.792	30.92
1067.211	30.39
1067.63	30.9
1068.049	30.57
1068.469	30.25
1068.888	30.52
1069.307	30.01
1069.726	30.6
1070.145	31.72
1070.564	30.59
1070.983	30.95
1071.402	32.19
1071.821	31.03
1072.24	31.3
1072.659	31.45
1073.078	29.93
1073.496	31.11
1073.915	30.5
1074.334	29.88
1074.753	30.64
1075.171	31.82
1075.59	31.43
1076.009	31.08
1076.427	31.52
1076.846	30.07
1077.265	29.56
1077.683	30.63
1078.102	31.72
1078.52	31.52
1078.939	31.56
1079.357	30.98
1079.776	31.32
1080.194	30.6
1080.612	30.1
1081.031	31.12
1081.449	31.02
1081.867	30.99
1082.285	30.82
1082.704	30.3
1083.122	31.2
1083.54	31.15
1083.958	31.43
1084.376	30.93
1084.794	30.76
1085.212	31.05
1085.63	31.72
1086.048	31.15
1086.466	31.22
1086.884	30.66
1087.302	31
1087.72	31.04
1088.138	30.27
1088.555	30.53
1088.973	30.88
1089.391	31.05
1089.809	31.36
1090.226	30.85
1090.644	31.61
1091.062	30.82
1091.479	30.43
1091.897	31.93
1092.314	30.4
1092.732	30.81
1093.15	31.67
1093.567	30.28
1093.984	31.88
1094.402	30.59
1094.819	31.17
1095.237	31.31
1095.654	32.17
1096.071	31.36
1096.488	30.7
1096.906	31.73
1097.323	30.91
1097.74	31.28
1098.157	30.29
1098.574	31.16
1098.991	31.43
1099.409	30.79
1099.826	30.98
1100.243	30.86
1100.66	31.62
1101.077	31.91
1101.494	29.74
1101.91	31.33
1102.327	29.9
1102.744	30.94
1103.161	32.47
1103.578	30.88
1103.994	30.96
1104.411	31.25
1104.828	31.95
1105.245	31.61
1105.661	32.44
1106.078	31.6
1106.494	30.86
1106.911	31.3
1107.328	30.05
1107.744	32.24
1108.161	31.57
1108.577	28.02
1108.993	31.87
1109.41	30.95
1109.826	31.71
1110.242	29.2
1110.659	30.19
1111.075	31.61
1111.491	30.91
1111.908	29.55
1112.324	28.84
1112.74	38.87
1113.156	27.7
1113.572	32.35
1113.988	33.78
1114.404	30.25
1114.82	29.97
1115.236	27.15
1115.652	29.85
1116.068	25.72
1116.484	31.87
1116.9	32.1
1117.316	31.57
1117.732	-25
1118.147	37.5
1118.563	40
1118.979	0
