Data from JCR0005_YellowVentral_Reflection_00003.txt Node
Date: Wed Jul 22 14:01:26 ACST 2020
User: Stacey Dix
Spectrometer: MAYP113282
Scans to average: 1
Trigger mode: 0
Integration Time (sec): 1.000000E-1
Electric dark correction enabled: true
Boxcar width: 0
XAxis mode: Wavelengths
Number of Pixels in Spectrum: 2068
>>>>>Begin Spectral Data<<<<<
198.791	-66.67
199.266	800
199.74	114.29
200.215	-114.29
200.69	4.4
201.164	30.25
201.639	13.07
202.114	-1.42
202.588	13.87
203.063	17.62
203.537	22.6
204.012	27.98
204.486	21.15
204.961	9.94
205.435	4.69
205.909	23.74
206.384	9.87
206.858	14.63
207.332	8.49
207.807	24.67
208.281	19
208.755	14.98
209.229	24.58
209.703	6.83
210.177	7.11
210.651	9.36
211.126	12.33
211.6	17.39
212.074	16.47
212.548	21.05
213.021	21.2
213.495	3.75
213.969	11.55
214.443	14.79
214.917	6.83
215.391	17.17
215.864	8.2
216.338	14.46
216.812	17.23
217.286	20.35
217.759	11.63
218.233	23.82
218.706	6.17
219.18	11.09
219.654	13.99
220.127	9.89
220.6	15.66
221.074	7.52
221.547	9.33
222.021	12.48
222.494	12.7
222.967	6.41
223.441	15.99
223.914	12.86
224.387	16.99
224.86	15.44
225.334	12.2
225.807	11.03
226.28	11.1
226.753	13.32
227.226	13.02
227.699	10.76
228.172	9.64
228.645	10.76
229.118	11.91
229.591	9.97
230.064	8.38
230.537	10.87
231.01	9.67
231.482	12.2
231.955	8.43
232.428	9.99
232.901	9.58
233.373	8.81
233.846	11.51
234.319	10.22
234.791	10.37
235.264	9.7
235.736	10.25
236.209	9.7
236.681	10.19
237.154	10.33
237.626	11.33
238.099	10.02
238.571	8.9
239.044	9.19
239.516	9.17
239.988	9.25
240.46	7.89
240.933	9.91
241.405	9.49
241.877	8.72
242.349	8.04
242.821	9.09
243.293	7.54
243.765	9.01
244.237	8.29
244.71	8.56
245.181	8.9
245.653	7.25
246.125	7.91
246.597	8.83
247.069	8.55
247.541	8.24
248.013	9.16
248.485	8.47
248.956	8.29
249.428	7.98
249.9	8.86
250.371	8.87
250.843	8.1
251.315	6.49
251.786	7.9
252.258	8.12
252.729	8.76
253.201	7.46
253.672	8.11
254.144	8.12
254.615	7.89
255.086	7.03
255.558	6.36
256.029	7.11
256.5	6.99
256.972	7.61
257.443	7.66
257.914	7.77
258.385	6.97
258.856	7.56
259.327	6.48
259.799	7.09
260.27	7.24
260.741	7.79
261.212	6.68
261.683	7.39
262.154	6.92
262.624	6.45
263.095	6.75
263.566	6.97
264.037	6.57
264.508	6.89
264.979	6.65
265.449	7.13
265.92	6.87
266.391	6.46
266.861	6.38
267.332	6.27
267.803	7.41
268.273	5.89
268.744	6.27
269.214	6.59
269.685	7.08
270.155	6.51
270.626	6.92
271.096	5.65
271.566	6.68
272.037	6.24
272.507	6.81
272.977	6.4
273.448	5.48
273.918	6.57
274.388	6.25
274.858	6.64
275.328	7.19
275.798	7.22
276.268	6.5
276.738	6.57
277.208	6.85
277.678	7.09
278.148	6.07
278.618	6.71
279.088	5.89
279.558	6.09
280.028	6.2
280.498	6.04
280.968	6.52
281.437	7.28
281.907	6.02
282.377	6.02
282.847	5.85
283.316	6.11
283.786	5.87
284.255	6.15
284.725	6.26
285.194	5.79
285.664	5.9
286.133	5.72
286.603	5.83
287.072	5.65
287.542	6.64
288.011	7.27
288.48	5.55
288.95	6.52
289.419	6.56
289.888	5.82
290.357	6.42
290.827	5.69
291.296	6.1
291.765	6.17
292.234	6.19
292.703	5.92
293.172	5.61
293.641	5.81
294.11	5.45
294.579	6.04
295.048	6.73
295.517	5.29
295.986	6.23
296.455	6.03
296.923	6.32
297.392	6.91
297.861	6.35
298.33	5.68
298.798	5.63
299.267	6.21
299.736	6.1
300.204	6.11
300.673	6.62
301.141	6.44
301.61	6.38
302.079	6.28
302.547	6.57
303.015	4.9
303.484	6.05
303.952	5.73
304.421	6.63
304.889	5.71
305.357	5.94
305.825	6.52
306.294	5.95
306.762	6.4
307.23	5.95
307.698	6.37
308.166	5.94
308.634	6.74
309.103	6.69
309.571	6.74
310.039	7.21
310.507	6.94
310.975	6.5
311.442	6.32
311.91	6.98
312.378	6.15
312.846	6.51
313.314	6.24
313.782	6.15
314.249	6.15
314.717	7.44
315.185	6.93
315.652	6.06
316.12	6.88
316.588	7.44
317.055	7.35
317.523	6.88
317.99	6.93
318.458	7.6
318.925	7.08
319.393	6.77
319.86	7.9
320.328	7.88
320.795	7.27
321.262	6.71
321.73	7.45
322.197	7.87
322.664	8.07
323.131	7.58
323.598	7.22
324.066	7.34
324.533	8.23
325	8.46
325.467	8.01
325.934	8.85
326.401	7.8
326.868	9.8
327.335	9.47
327.802	9.03
328.269	9.68
328.735	8.67
329.202	10.16
329.669	8.7
330.136	9.15
330.603	9.51
331.069	9.97
331.536	10.27
332.003	10.58
332.469	9.37
332.936	10.93
333.402	10.72
333.869	11.14
334.336	11.47
334.802	10.91
335.268	10.89
335.735	10.17
336.201	10.63
336.668	11.56
337.134	11.67
337.6	10.37
338.067	11.33
338.533	11.04
338.999	10.65
339.465	11.11
339.931	12.48
340.398	10.33
340.864	10.39
341.33	11.16
341.796	11.14
342.262	11.32
342.728	11.15
343.194	10.76
343.66	10.73
344.126	10.47
344.592	10.31
345.057	10.96
345.523	10.46
345.989	11.43
346.455	11.11
346.921	11.15
347.386	10.23
347.852	11.69
348.318	10.99
348.783	10.65
349.249	10.5
349.714	11.56
350.18	10.6
350.645	11.5
351.111	10.78
351.576	11.13
352.042	12.12
352.507	11.47
352.973	11.28
353.438	10.44
353.903	9.96
354.369	10.9
354.834	10.22
355.299	10.65
355.764	10.88
356.229	11.5
356.695	10.77
357.16	10.69
357.625	10.49
358.09	11.64
358.555	11.82
359.02	10.18
359.485	10.09
359.95	10.32
360.415	10.47
360.879	10.53
361.344	10.29
361.809	10.71
362.274	10.56
362.739	10.1
363.203	10.01
363.668	10.23
364.133	10.44
364.597	10.18
365.062	10.4
365.527	10.89
365.991	10.08
366.456	10.6
366.92	10.85
367.385	9.88
367.849	10.95
368.314	9.63
368.778	11.85
369.242	10.23
369.707	9.84
370.171	9.65
370.635	11.43
371.1	10.1
371.564	11.94
372.028	9.51
372.492	11.17
372.956	10.02
373.42	9.92
373.884	11.09
374.348	10.83
374.812	9.37
375.276	10.01
375.74	10.39
376.204	9.55
376.668	9.96
377.132	11.49
377.596	10.57
378.06	10.07
378.524	9.73
378.987	10.02
379.451	9.51
379.915	10.09
380.378	10.31
380.842	9.64
381.306	10.02
381.769	9.89
382.233	10
382.696	11.49
383.16	10.5
383.623	9.17
384.087	9.91
384.55	9.84
385.014	9.5
385.477	10.07
385.94	9.78
386.404	9.36
386.867	10.87
387.33	9.43
387.793	9.7
388.256	9.22
388.72	10.34
389.183	9.45
389.646	9.39
390.109	9
390.572	9.03
391.035	10.18
391.498	10.17
391.961	9.46
392.424	9.19
392.887	9.56
393.35	10.11
393.812	9.24
394.275	9
394.738	9.74
395.201	9.19
395.664	8.92
396.126	9.2
396.589	9.25
397.052	9.69
397.514	8.52
397.977	7.87
398.439	8.74
398.902	8.24
399.364	8.06
399.827	9.04
400.289	8.39
400.752	9.36
401.214	8.93
401.676	9.41
402.139	8.89
402.601	8.86
403.063	9.19
403.525	8.44
403.988	8.3
404.45	9.32
404.912	7.83
405.374	8.35
405.836	8.63
406.298	9.31
406.76	9.33
407.222	8.73
407.684	9.25
408.146	9.05
408.608	8.73
409.07	8.53
409.532	8.71
409.994	8.11
410.456	8.16
410.917	8.28
411.379	8.63
411.841	8.28
412.303	8.19
412.764	7.43
413.226	8.35
413.687	8.13
414.149	9.34
414.611	9.01
415.072	7.16
415.534	8.23
415.995	7.79
416.457	8.16
416.918	8.87
417.379	8.85
417.841	8.51
418.302	8.46
418.763	9.34
419.225	8.83
419.686	8.15
420.147	8.1
420.608	8.57
421.069	9.02
421.53	8.49
421.991	8.24
422.453	8.43
422.914	8.98
423.375	8.05
423.836	8.12
424.297	8.66
424.757	9
425.218	8.8
425.679	8.22
426.14	8.28
426.601	9.19
427.062	9.31
427.522	8.29
427.983	9.18
428.444	8.84
428.904	9.56
429.365	8.96
429.826	8.81
430.286	9.21
430.747	9.23
431.207	8.94
431.668	6
432.128	9.79
432.589	8.35
433.049	9.39
433.509	10.43
433.97	9.91
434.43	8.77
434.89	10.75
435.351	9.15
435.811	10.08
436.271	10.48
436.731	8.2
437.191	8.37
437.651	10.61
438.112	9.82
438.572	9.4
439.032	9.34
439.492	7.57
439.952	10.29
440.412	9.08
440.871	9.86
441.331	10.35
441.791	10.21
442.251	10.2
442.711	9.97
443.171	9.77
443.63	10.21
444.09	9.87
444.55	11.02
445.009	9.84
445.469	8.46
445.929	10.43
446.388	11.15
446.848	11.08
447.307	9.13
447.767	10.18
448.226	10.45
448.686	11
449.145	10.91
449.604	10.51
450.064	9.52
450.523	11.1
450.982	10.05
451.442	10.96
451.901	10.22
452.36	10.39
452.819	10.86
453.278	10.46
453.737	10.68
454.197	10.39
454.656	9.99
455.115	10.09
455.574	11.31
456.033	10.93
456.492	11.16
456.95	9.96
457.409	10.93
457.868	11.27
458.327	10.01
458.786	10.01
459.245	10.91
459.703	11.6
460.162	11.6
460.621	10.19
461.079	11.63
461.538	10.38
461.997	12.2
462.455	11.9
462.914	12.54
463.372	11.92
463.831	11.94
464.289	10.91
464.748	11.88
465.206	12.3
465.664	12.37
466.123	13.02
466.581	13.68
467.039	13.3
467.497	10.28
467.956	12.92
468.414	10.77
468.872	12.35
469.33	12.96
469.788	12.08
470.246	15.45
470.704	13.33
471.162	15.26
471.62	13.19
472.078	14.68
472.536	15.06
472.994	13.9
473.452	15.07
473.91	14.52
474.368	15.38
474.826	16.55
475.283	16.11
475.741	14.53
476.199	15.83
476.656	15.19
477.114	16.83
477.572	16.1
478.029	14.68
478.487	17.33
478.944	16.45
479.402	18.24
479.859	18.95
480.317	17.27
480.774	20.12
481.232	18.2
481.689	18.18
482.146	18.9
482.604	18.55
483.061	19.22
483.518	17.54
483.975	21.57
484.433	20.48
484.89	20.87
485.347	22.43
485.804	23.33
486.261	21.82
486.718	22.53
487.175	23.06
487.632	24.4
488.089	21.71
488.546	23.03
489.003	24.44
489.46	26.09
489.917	24.1
490.373	22.93
490.83	24.2
491.287	27.63
491.744	24.68
492.2	25.02
492.657	24.87
493.114	23.6
493.57	25.01
494.027	24.68
494.484	27.82
494.94	27.26
495.397	27.2
495.853	26.8
496.31	27.4
496.766	26.72
497.222	26.24
497.679	27.19
498.135	27.2
498.591	28.5
499.048	26.44
499.504	28.79
499.96	28.21
500.416	27.8
500.872	27.7
501.329	29.2
501.785	26.96
502.241	28.46
502.697	27.76
503.153	28.82
503.609	29.7
504.065	29.92
504.521	27.48
504.977	29.08
505.432	27.68
505.888	27.56
506.344	29.68
506.8	28.91
507.256	28.59
507.711	29.5
508.167	29.54
508.623	30.91
509.078	29.58
509.534	29.38
509.99	26.9
510.445	28.5
510.901	28.73
511.356	29.2
511.812	29.52
512.267	29.39
512.722	31.56
513.178	29.31
513.633	30.1
514.089	29.82
514.544	31.01
514.999	29.12
515.454	28.75
515.91	29.22
516.365	31.37
516.82	29.03
517.275	31.35
517.73	30.12
518.185	29.28
518.64	30.64
519.095	29.39
519.55	30.74
520.005	30.54
520.46	30.26
520.915	29.69
521.37	29.7
521.825	29.92
522.28	30.68
522.734	30.13
523.189	31.6
523.644	29.68
524.099	30.18
524.553	30.74
525.008	30.01
525.462	28.84
525.917	30.8
526.372	30.63
526.826	30.78
527.281	30.24
527.735	30.33
528.19	30.12
528.644	29.95
529.098	29.96
529.553	28.73
530.007	30.69
530.461	31.04
530.916	32.31
531.37	31.05
531.824	31.56
532.278	28.7
532.732	31.24
533.186	31.42
533.641	30.05
534.095	30.64
534.549	29.75
535.003	30.94
535.457	30.17
535.911	30.55
536.365	29.33
536.818	30.21
537.272	31.27
537.726	30.46
538.18	28.5
538.634	29.68
539.087	30.85
539.541	30.64
539.995	29.36
540.449	31.31
540.902	31.67
541.356	31.39
541.809	29.3
542.263	30.77
542.716	31.01
543.17	31.7
543.623	30.36
544.077	29.44
544.53	31.81
544.984	30.6
545.437	31.68
545.89	29.7
546.344	32.17
546.797	31.97
547.25	30.82
547.703	31.86
548.157	32.44
548.61	31.34
549.063	31.11
549.516	31.68
549.969	31.4
550.422	31.08
550.875	31.98
551.328	31.49
551.781	30.75
552.234	30.83
552.687	30.42
553.14	30.07
553.592	31.88
554.045	32.28
554.498	31.61
554.951	30.89
555.404	31.69
555.856	31.52
556.309	31.63
556.762	32.58
557.214	30.76
557.667	31.51
558.119	30.47
558.572	32.14
559.024	31.56
559.477	31.62
559.929	30.76
560.382	30.27
560.834	31.51
561.286	30.6
561.739	31.5
562.191	31.48
562.643	31.36
563.095	32.89
563.548	31.32
564	31.42
564.452	30.5
564.904	31.9
565.356	31.4
565.808	30.23
566.26	32.78
566.712	31.26
567.164	31.74
567.616	31.36
568.068	31.7
568.52	31.68
568.972	30.84
569.424	31
569.876	32.81
570.327	30.85
570.779	32.11
571.231	31.48
571.682	30.61
572.134	31.92
572.586	33.37
573.037	31.79
573.489	32.14
573.941	31.35
574.392	32.44
574.844	31.63
575.295	32.32
575.746	32.23
576.198	33.22
576.649	31.47
577.101	31.92
577.552	31.5
578.003	31.63
578.454	33.36
578.906	33.35
579.357	31.49
579.808	33.32
580.259	31.71
580.71	31.77
581.161	31.52
581.612	32.65
582.064	32.31
582.515	32.2
582.965	32.24
583.416	30.5
583.867	32.96
584.318	31.88
584.769	33.11
585.22	32.31
585.671	31.63
586.122	32.69
586.572	32.32
587.023	33.14
587.474	31.68
587.924	33.03
588.375	32.08
588.826	33.22
589.276	32.48
589.727	32.26
590.177	32.82
590.628	32.91
591.078	32.78
591.529	32.46
591.979	30.94
592.429	32.88
592.88	32.95
593.33	32.37
593.78	32.68
594.231	33.17
594.681	33.5
595.131	33.27
595.581	33.49
596.031	31.68
596.481	32.44
596.932	32.69
597.382	33.91
597.832	32.29
598.282	33.22
598.732	32.31
599.182	33.34
599.632	32.9
600.081	32.16
600.531	33.07
600.981	31.9
601.431	34.27
601.881	33.48
602.33	32.84
602.78	32.13
603.23	32.34
603.679	32.11
604.129	32.42
604.579	32.79
605.028	32.88
605.478	32.7
605.927	32.06
606.377	33.04
606.826	33.32
607.276	33.57
607.725	32.52
608.175	32.82
608.624	33
609.073	32.59
609.522	33.33
609.972	32.97
610.421	32.79
610.87	33.33
611.319	31.26
611.768	33.65
612.218	33.53
612.667	32.51
613.116	33.36
613.565	32.68
614.014	32.48
614.463	33.15
614.912	33.52
615.361	32.41
615.81	33.95
616.258	33.85
616.707	32.24
617.156	31.53
617.605	32.71
618.054	32.04
618.502	33.82
618.951	32.68
619.4	33.36
619.848	33.3
620.297	33.62
620.745	33.29
621.194	31.9
621.642	33.55
622.091	34.46
622.539	34.07
622.988	32.52
623.436	33.25
623.885	33.02
624.333	32.58
624.781	33.14
625.23	32.88
625.678	32.94
626.126	33.56
626.574	32.91
627.022	32.35
627.471	33.34
627.919	32.46
628.367	33.07
628.815	33.13
629.263	33.01
629.711	31.9
630.159	33.33
630.607	33.34
631.055	33.14
631.503	33.07
631.95	33.54
632.398	32.95
632.846	32.73
633.294	32.67
633.742	32.9
634.189	32.7
634.637	32.88
635.085	32.31
635.532	32.74
635.98	33.75
636.427	33.5
636.875	33.1
637.323	33.76
637.77	33.35
638.217	33.04
638.665	33.96
639.112	31.94
639.56	32.72
640.007	32.04
640.454	33.23
640.902	32.51
641.349	32.13
641.796	32.97
642.243	33.06
642.69	32.71
643.138	33.13
643.585	31.72
644.032	33.95
644.479	33.41
644.926	33.83
645.373	33.07
645.82	32.75
646.267	33.63
646.714	33.54
647.161	34.02
647.607	32.69
648.054	33.21
648.501	32.06
648.948	33.3
649.395	33.83
649.841	32.68
650.288	33.69
650.735	33.42
651.181	32.69
651.628	32.02
652.075	32.88
652.521	33.72
652.968	33.22
653.414	32.59
653.861	32.88
654.307	33.21
654.753	32.74
655.2	33.12
655.646	32.73
656.092	32.95
656.539	33.36
656.985	33.02
657.431	32.56
657.877	32.71
658.324	32.35
658.77	32.69
659.216	32.53
659.662	32.76
660.108	32.59
660.554	33.12
661	32.91
661.446	32.29
661.892	33.55
662.338	32.15
662.784	32.7
663.23	32.7
663.675	32.54
664.121	32.37
664.567	32.84
665.013	33.21
665.458	32.73
665.904	32.99
666.35	32.07
666.795	33.15
667.241	32.74
667.687	32.86
668.132	32.79
668.578	33.08
669.023	33.23
669.469	32.74
669.914	32.97
670.359	32.25
670.805	32.81
671.25	32.76
671.695	33.01
672.141	33.5
672.586	33.51
673.031	32.96
673.476	32.19
673.922	33.3
674.367	32.74
674.812	32.04
675.257	32.7
675.702	34.7
676.147	32.94
676.592	31.87
677.037	33.38
677.482	33.21
677.927	31.97
678.372	31.92
678.817	32.78
679.261	31.94
679.706	33.13
680.151	31.86
680.596	32.98
681.04	32.29
681.485	32.7
681.93	31.97
682.374	32.72
682.819	32.64
683.264	33.03
683.708	32.9
684.153	33.15
684.597	32.27
685.042	32.69
685.486	31.5
685.93	32.87
686.375	31.6
686.819	32.56
687.263	32.02
687.708	32.15
688.152	31.87
688.596	32.85
689.04	32.41
689.485	32.84
689.929	31.93
690.373	32.23
690.817	32.1
691.261	32.84
691.705	31.17
692.149	32.23
692.593	32.31
693.037	32.02
693.481	32.47
693.925	32.1
694.369	32.44
694.812	32.81
695.256	31.4
695.7	32.93
696.144	32.5
696.587	31.89
697.031	31.91
697.475	31.58
697.918	31.68
698.362	31.89
698.806	32.15
699.249	32.78
699.693	31.86
700.136	32.56
700.58	32.1
701.023	31.66
701.466	32.3
701.91	33.24
702.353	32.37
702.796	32.36
703.24	31.76
703.683	31.67
704.126	31.8
704.569	32.24
705.013	32.16
705.456	31.97
705.899	31.54
706.342	32.32
706.785	32.52
707.228	31.69
707.671	32.53
708.114	32.18
708.557	31.67
709	32.17
709.443	32.64
709.886	32.54
710.328	32.27
710.771	31.96
711.214	32.59
711.657	31.23
712.099	32.37
712.542	32.62
712.985	32.38
713.427	31.71
713.87	32.68
714.313	31.89
714.755	31.87
715.198	31.5
715.64	31.98
716.083	32.84
716.525	31.84
716.967	32.12
717.41	32.44
717.852	32.07
718.295	32
718.737	32.48
719.179	32.74
719.621	32.06
720.063	31.87
720.506	31.72
720.948	31.6
721.39	32.25
721.832	33.08
722.274	32.02
722.716	31.71
723.158	31.42
723.6	31.79
724.042	31.84
724.484	32.16
724.926	31.7
725.368	31.7
725.81	33.23
726.251	31.93
726.693	31.89
727.135	31.06
727.577	31.58
728.018	31.74
728.46	31.83
728.902	32.04
729.343	32.42
729.785	31.45
730.226	31.92
730.668	31.17
731.109	31.65
731.551	31.99
731.992	31.48
732.434	32.23
732.875	31.21
733.316	31.65
733.758	31.8
734.199	31.56
734.64	31.63
735.081	31.79
735.523	31.89
735.964	31.91
736.405	31.21
736.846	31.9
737.287	31.78
737.728	32.17
738.169	32.31
738.61	31.17
739.051	31.03
739.492	31.93
739.933	31.39
740.374	32.25
740.815	31.15
741.256	31.65
741.696	31.28
742.137	30.67
742.578	31.3
743.019	31.09
743.459	31.59
743.9	32.53
744.341	31.59
744.781	31.09
745.222	31.21
745.662	30.42
746.103	31.05
746.543	31.6
746.984	31.37
747.424	32
747.865	31.66
748.305	31.91
748.745	31.6
749.186	31.22
749.626	31.5
750.066	30.66
750.506	31.13
750.947	31.32
751.387	31.77
751.827	31.29
752.267	31.25
752.707	31.56
753.147	31.43
753.587	31.41
754.027	31.3
754.467	32.14
754.907	31.16
755.347	31.22
755.787	31.46
756.227	31.11
756.667	31.27
757.107	31.53
757.546	31.45
757.986	30.96
758.426	30.95
758.865	30.76
759.305	31.48
759.745	30.9
760.184	31.91
760.624	31.85
761.063	32.18
761.503	31.09
761.943	31.41
762.382	31.62
762.821	31.01
763.261	31.04
763.7	31.24
764.14	31.3
764.579	30.63
765.018	31.22
765.457	31.67
765.897	31.08
766.336	31.95
766.775	31.43
767.214	30.81
767.653	31.26
768.092	31.09
768.531	31.57
768.97	31.51
769.409	31.33
769.848	31
770.287	30.99
770.726	31.29
771.165	31.07
771.604	30.48
772.043	31.16
772.482	31.63
772.92	30.95
773.359	31.19
773.798	30.74
774.237	31.27
774.675	31.71
775.114	30.32
775.553	30.94
775.991	31.02
776.43	31.66
776.868	30.78
777.307	30.76
777.745	31.85
778.184	30.62
778.622	31.1
779.06	31.1
779.499	30.81
779.937	30.67
780.375	30.87
780.814	30.9
781.252	31.24
781.69	31.03
782.128	30.98
782.566	30.8
783.004	30.77
783.443	31.02
783.881	31.16
784.319	31.12
784.757	30.62
785.195	30.56
785.633	31.28
786.071	31.07
786.508	31.46
786.946	30.31
787.384	30.74
787.822	31.52
788.26	31.16
788.697	31.7
789.135	30.92
789.573	30.84
790.011	31.05
790.448	31.05
790.886	29.98
791.323	30.66
791.761	30.73
792.198	30.75
792.636	31.1
793.073	31.32
793.511	30.94
793.948	29.86
794.386	30.6
794.823	30.91
795.26	30.78
795.698	31.04
796.135	30.65
796.572	30.92
797.009	30.69
797.446	31.26
797.884	30.43
798.321	30.64
798.758	30.75
799.195	30.32
799.632	30.74
800.069	30.94
800.506	30.33
800.943	30.67
801.38	30.55
801.817	31.38
802.254	31.11
802.69	30.61
803.127	31.11
803.564	30.09
804.001	30.4
804.438	30.23
804.874	30.59
805.311	31.02
805.748	30.61
806.184	30.26
806.621	30.75
807.057	30.9
807.494	30.41
807.93	30.34
808.367	30.46
808.803	30.39
809.24	30.61
809.676	31.19
810.112	30.36
810.549	30.71
810.985	30.75
811.421	30.47
811.857	30.2
812.294	30.33
812.73	30.15
813.166	30.37
813.602	30.49
814.038	30.28
814.474	30.44
814.91	30.14
815.346	31.4
815.782	30.53
816.218	30.37
816.654	30.74
817.09	30.39
817.526	31.02
817.962	30.18
818.398	30.41
818.833	29.85
819.269	30.63
819.705	30.62
820.141	30.43
820.576	30.59
821.012	30.45
821.447	29.56
821.883	30.37
822.319	30.89
822.754	30.48
823.19	29.99
823.625	30.92
824.061	30.4
824.496	30.04
824.931	30.43
825.367	30.38
825.802	30.29
826.237	29.97
826.673	30.22
827.108	30.15
827.543	30.66
827.978	30.36
828.413	30.18
828.849	30.52
829.284	30.84
829.719	30.24
830.154	30.36
830.589	30.17
831.024	30.11
831.459	30.81
831.894	29.76
832.329	30.24
832.763	30.49
833.198	29.71
833.633	30.27
834.068	30.49
834.503	30.33
834.937	29.99
835.372	30.13
835.807	30.13
836.241	29.94
836.676	30.09
837.111	30.12
837.545	30.6
837.98	30.35
838.414	29.85
838.849	29.77
839.283	30.17
839.717	29.9
840.152	30.32
840.586	30.28
841.021	29.45
841.455	29.78
841.889	30.19
842.323	30.01
842.758	30.03
843.192	30.32
843.626	29.81
844.06	29.69
844.494	29.95
844.928	30.31
845.362	30.21
845.796	30.05
846.23	30.04
846.664	30.63
847.098	29.77
847.532	30.36
847.966	30.55
848.4	30.29
848.834	30.06
849.267	29.91
849.701	29.82
850.135	29.77
850.569	29.66
851.002	30.19
851.436	30.02
851.87	29.98
852.303	30.1
852.737	29.97
853.17	29.65
853.604	29.91
854.037	29.24
854.471	29.7
854.904	29.74
855.337	29.51
855.771	30.06
856.204	29.75
856.637	29.89
857.071	29.93
857.504	29.94
857.937	29.67
858.37	30.04
858.804	30.13
859.237	29.86
859.67	29.54
860.103	29.77
860.536	29.65
860.969	29.74
861.402	29.78
861.835	29.52
862.268	29.58
862.701	29.65
863.134	29.61
863.566	29.93
863.999	29.45
864.432	30.03
864.865	29.62
865.298	29.88
865.73	29.12
866.163	29.57
866.596	29.77
867.028	29.95
867.461	29.77
867.893	29.79
868.326	29.76
868.758	30.25
869.191	29.78
869.623	29.46
870.056	29.75
870.488	29.62
870.92	29.43
871.353	29.77
871.785	29.27
872.217	29.59
872.65	30.22
873.082	29.56
873.514	29.18
873.946	29.95
874.378	29.87
874.81	29.88
875.243	29.55
875.675	29.14
876.107	30.31
876.539	29.4
876.971	29.65
877.403	30
877.834	30.01
878.266	29.56
878.698	29.77
879.13	29.45
879.562	29.33
879.994	28.71
880.425	29.32
880.857	29.32
881.289	29.52
881.72	29.11
882.152	28.79
882.584	29.33
883.015	29.26
883.447	29.8
883.878	29.35
884.31	29.54
884.741	29.57
885.173	29.82
885.604	29.03
886.035	29.54
886.467	29.43
886.898	29.37
887.329	29.65
887.76	29.56
888.192	29.58
888.623	29.18
889.054	29.47
889.485	29.36
889.916	29.43
890.347	29.34
890.778	29.21
891.209	28.89
891.64	28.85
892.071	29.02
892.502	29.77
892.933	29.43
893.364	29.16
893.795	29.13
894.226	29.3
894.657	29.22
895.087	29.15
895.518	29.35
895.949	29.29
896.38	29.04
896.81	28.94
897.241	29.31
897.671	29.29
898.102	29.31
898.533	29.21
898.963	29.5
899.394	28.78
899.824	29.33
900.254	28.99
900.685	29.46
901.115	29.08
901.546	29.57
901.976	29.13
902.406	29.34
902.836	29.46
903.267	29.41
903.697	29.3
904.127	28.99
904.557	28.96
904.987	29.09
905.417	29.1
905.847	29.69
906.277	29.22
906.707	29.21
907.137	29.3
907.567	29.36
907.997	29.05
908.427	28.73
908.857	28.66
909.287	28.79
909.717	28.86
910.146	28.65
910.576	28.77
911.006	28.84
911.436	28.85
911.865	29.07
912.295	29.05
912.724	29.18
913.154	28.58
913.584	29.23
914.013	29.19
914.443	29.24
914.872	28.81
915.302	29.31
915.731	29.01
916.16	28.6
916.59	29.18
917.019	28.55
917.448	29.16
917.878	28.91
918.307	28.91
918.736	29.03
919.165	28.75
919.594	28.92
920.023	28.9
920.452	28.89
920.882	28.83
921.311	29.1
921.74	28.83
922.169	28.71
922.597	28.4
923.026	29.08
923.455	29.06
923.884	28.46
924.313	28.36
924.742	28.97
925.171	29.1
925.599	29.07
926.028	28.8
926.457	28.85
926.885	28.62
927.314	28.59
927.743	28.79
928.171	28.45
928.6	28.69
929.028	28.85
929.457	28.36
929.885	28.68
930.314	28.44
930.742	28.91
931.17	28.42
931.599	28.31
932.027	28.92
932.455	28.8
932.884	28.47
933.312	28.6
933.74	28.84
934.168	29.05
934.596	28.78
935.025	28.55
935.453	28.82
935.881	28.48
936.309	28.93
936.737	28.46
937.165	28.97
937.593	28.4
938.021	29.26
938.449	28.3
938.876	28.42
939.304	28.51
939.732	28.35
940.16	28.8
940.588	28.44
941.015	28.45
941.443	28
941.871	28.25
942.298	28.63
942.726	28.07
943.154	28.38
943.581	28.45
944.009	28.02
944.436	28.11
944.864	28.52
945.291	27.83
945.718	27.66
946.146	27.99
946.573	27.55
947.001	27.94
947.428	28.5
947.855	27.92
948.282	28.03
948.71	28.62
949.137	28.17
949.564	27.63
949.991	28.03
950.418	28.11
950.845	27.49
951.272	28.04
951.699	27.95
952.126	28.17
952.553	28.05
952.98	27.94
953.407	27.83
953.834	28.15
954.261	28.17
954.688	27.86
955.114	27.6
955.541	28.48
955.968	27.63
956.395	27.95
956.821	27.65
957.248	27.7
957.674	27.68
958.101	27.88
958.528	27.74
958.954	27.89
959.381	27.95
959.807	27.91
960.234	27.9
960.66	28.11
961.086	27.91
961.513	27.91
961.939	27.64
962.365	28.22
962.792	27.57
963.218	27.8
963.644	27.84
964.07	27.43
964.496	27.97
964.923	27.87
965.349	27.36
965.775	28.01
966.201	27.65
966.627	27.95
967.053	27.42
967.479	28.05
967.905	27.74
968.331	27.27
968.756	27.91
969.182	28.05
969.608	27.63
970.034	27.84
970.46	27.57
970.885	27.77
971.311	27.47
971.737	27.92
972.162	27.9
972.588	27.96
973.014	27.81
973.439	27.89
973.865	27.64
974.29	27.77
974.716	27.76
975.141	27.63
975.567	28.03
975.992	27.61
976.417	27.48
976.843	27.46
977.268	28.14
977.693	27.9
978.119	27.43
978.544	27.84
978.969	27.53
979.394	27.95
979.819	27.47
980.244	27.62
980.669	27.71
981.095	27.76
981.52	27.7
981.945	27.65
982.369	28.05
982.794	27.67
983.219	27.7
983.644	27.82
984.069	27.66
984.494	27.68
984.919	27.47
985.343	27.34
985.768	27.37
986.193	27.53
986.618	27.63
987.042	27.4
987.467	27.88
987.891	27.81
988.316	27.92
988.741	27.72
989.165	27.47
989.59	27.99
990.014	27.79
990.438	27.97
990.863	27.55
991.287	27.8
991.712	27.57
992.136	27.97
992.56	27.34
992.984	28.04
993.409	27.76
993.833	27.6
994.257	27.66
994.681	27.42
995.105	27.34
995.529	27.44
995.953	27.78
996.377	27.41
996.801	27.44
997.225	27.42
997.649	27.36
998.073	27.69
998.497	27.67
998.921	27.45
999.345	27.57
999.769	27.6
1000.192	27.12
1000.616	27.6
1001.04	27.23
1001.464	27.42
1001.887	27.18
1002.311	27.32
1002.734	27.64
1003.158	27.13
1003.582	27.32
1004.005	27.65
1004.429	27.8
1004.852	27.59
1005.275	27.74
1005.699	27.54
1006.122	27.32
1006.546	27.56
1006.969	27.4
1007.392	27.31
1007.815	27.47
1008.239	27.75
1008.662	27.32
1009.085	27.26
1009.508	27.48
1009.931	27.79
1010.354	27.66
1010.778	27.48
1011.201	27.74
1011.624	27.15
1012.047	27.48
1012.469	27.64
1012.892	27.08
1013.315	27.65
1013.738	27.85
1014.161	27.37
1014.584	27.01
1015.007	27.26
1015.429	27.46
1015.852	27.09
1016.275	27.72
1016.697	27.45
1017.12	27.89
1017.543	27.76
1017.965	27.36
1018.388	27.34
1018.81	27.49
1019.233	27.39
1019.655	27.47
1020.078	27.62
1020.5	27.3
1020.922	27.12
1021.345	27.4
1021.767	27.4
1022.189	26.83
1022.612	27.15
1023.034	27.1
1023.456	27.36
1023.878	26.98
1024.301	27.31
1024.723	27.32
1025.145	27.67
1025.567	27.25
1025.989	27.28
1026.411	27.3
1026.833	27.52
1027.255	27.65
1027.677	27.36
1028.099	27.62
1028.52	26.56
1028.942	27.57
1029.364	27.23
1029.786	27.22
1030.208	27.95
1030.629	26.94
1031.051	27.48
1031.473	27.49
1031.894	27.38
1032.316	26.72
1032.738	27.28
1033.159	27.47
1033.581	27.22
1034.002	27.23
1034.424	27.03
1034.845	27.54
1035.267	27.07
1035.688	27.18
1036.109	27.46
1036.531	27.14
1036.952	27.22
1037.373	27.07
1037.794	27.5
1038.216	27.51
1038.637	27.04
1039.058	27.7
1039.479	27.46
1039.9	27.74
1040.321	27.74
1040.742	27.02
1041.163	27.59
1041.584	27.48
1042.005	27.03
1042.426	27.32
1042.847	27.74
1043.268	27.27
1043.689	27.29
1044.11	26.98
1044.53	27.12
1044.951	27.3
1045.372	27.2
1045.793	27.16
1046.213	27.05
1046.634	26.92
1047.055	27.05
1047.475	27.54
1047.896	27.08
1048.316	27.46
1048.737	27.24
1049.157	27.71
1049.578	27.41
1049.998	27.41
1050.419	27.62
1050.839	26.95
1051.259	26.97
1051.68	26.73
1052.1	26.9
1052.52	26.85
1052.94	27.49
1053.361	27.5
1053.781	27.39
1054.201	26.88
1054.621	27.35
1055.041	26.56
1055.461	27.21
1055.881	27.37
1056.301	27.44
1056.721	26.96
1057.141	26.51
1057.561	26.63
1057.981	26.68
1058.401	27.31
1058.82	27.32
1059.24	26.87
1059.66	26.46
1060.08	27.38
1060.499	27.07
1060.919	26.82
1061.339	26.7
1061.758	27.23
1062.178	27.02
1062.598	26.85
1063.017	26.93
1063.437	26.96
1063.856	27.38
1064.276	26.84
1064.695	26.71
1065.114	26.38
1065.534	26.99
1065.953	26.91
1066.372	26.75
1066.792	27.2
1067.211	27.5
1067.63	26.97
1068.049	27.42
1068.469	27.1
1068.888	27.06
1069.307	26.21
1069.726	27.09
1070.145	26.93
1070.564	26.74
1070.983	27.01
1071.402	27.06
1071.821	26.88
1072.24	26.05
1072.659	27.01
1073.078	27.05
1073.496	27.18
1073.915	27.38
1074.334	26.75
1074.753	27.13
1075.171	25.94
1075.59	26.51
1076.009	26.71
1076.427	26.84
1076.846	27.38
1077.265	26.26
1077.683	26.93
1078.102	26.57
1078.52	26.16
1078.939	27.17
1079.357	26.95
1079.776	26.85
1080.194	27.19
1080.612	26.3
1081.031	26.43
1081.449	27.58
1081.867	24.55
1082.285	26.65
1082.704	27.11
1083.122	25.74
1083.54	27.72
1083.958	26.85
1084.376	26.82
1084.794	26.43
1085.212	26.75
1085.63	27.09
1086.048	27.56
1086.466	26.29
1086.884	26.62
1087.302	26.36
1087.72	26.85
1088.138	27.09
1088.555	27.18
1088.973	27.78
1089.391	26.84
1089.809	27.04
1090.226	25.2
1090.644	28.13
1091.062	25.68
1091.479	25.99
1091.897	27.72
1092.314	26.06
1092.732	26.79
1093.15	26.99
1093.567	27.5
1093.984	27
1094.402	27.05
1094.819	25.91
1095.237	26.11
1095.654	26.11
1096.071	26.99
1096.488	27.88
1096.906	27.09
1097.323	26.16
1097.74	26.98
1098.157	25.87
1098.574	26.03
1098.991	26.26
1099.409	26.4
1099.826	25
1100.243	27.52
1100.66	26.31
1101.077	26.57
1101.494	28.73
1101.91	27.12
1102.327	26.9
1102.744	26.55
1103.161	27.39
1103.578	26.92
1103.994	26.56
1104.411	26.11
1104.828	26.5
1105.245	25.96
1105.661	27.88
1106.078	25.49
1106.494	26.52
1106.911	27.47
1107.328	26.21
1107.744	27.49
1108.161	26.08
1108.577	26.59
1108.993	24.96
1109.41	26.24
1109.826	26.87
1110.242	26.14
1110.659	28.1
1111.075	26.84
1111.491	25.52
1111.908	26.72
1112.324	28.17
1112.74	23.51
1113.156	26.87
1113.572	27.9
1113.988	26.64
1114.404	25.77
1114.82	23.64
1115.236	28.59
1115.652	23.29
1116.068	26.86
1116.484	23.26
1116.9	28.91
1117.316	30.4
1117.732	-0
1118.147	47.62
1118.563	2200
1118.979	-133.33
