Data from JCR0010_WhiteVentral_Reflection_00002.txt Node
Date: Thu Jul 23 13:03:30 ACST 2020
User: Stacey Dix
Spectrometer: MAYP113282
Scans to average: 1
Trigger mode: 0
Integration Time (sec): 1.000000E-1
Electric dark correction enabled: true
Boxcar width: 0
XAxis mode: Wavelengths
Number of Pixels in Spectrum: 2068
>>>>>Begin Spectral Data<<<<<
198.791	-187.5
199.266	-88.24
199.74	-18.75
200.215	-187.5
200.69	30.63
201.164	34.05
201.639	26.51
202.114	30.68
202.588	18.86
203.063	35.09
203.537	28.62
204.012	26.34
204.486	29.51
204.961	24.91
205.435	22.49
205.909	22.42
206.384	34.29
206.858	21.13
207.332	30.2
207.807	27.8
208.281	25.16
208.755	33.05
209.229	23.6
209.703	24.27
210.177	26.87
210.651	20.53
211.126	27.23
211.6	25.82
212.074	22.54
212.548	20.38
213.021	24.27
213.495	14.35
213.969	21
214.443	21.24
214.917	19.43
215.391	19.49
215.864	18.39
216.338	18.26
216.812	14.97
217.286	20.17
217.759	21.53
218.233	21.84
218.706	16.18
219.18	20.53
219.654	17.78
220.127	21.17
220.6	9.17
221.074	17.72
221.547	13.5
222.021	18.74
222.494	14.27
222.967	14.58
223.441	14.94
223.914	16.65
224.387	14.31
224.86	11.57
225.334	12.99
225.807	14.62
226.28	10.09
226.753	13.47
227.226	11.38
227.699	9.48
228.172	12.96
228.645	10.81
229.118	10.43
229.591	12.03
230.064	10.03
230.537	10.68
231.01	9.36
231.482	11.65
231.955	11.75
232.428	9.29
232.901	9.02
233.373	10.42
233.846	9.94
234.319	9.21
234.791	9.02
235.264	8.27
235.736	8.64
236.209	8.95
236.681	8.71
237.154	7.91
237.626	8.19
238.099	8.48
238.571	8.05
239.044	8.07
239.516	8.7
239.988	8.62
240.46	8.17
240.933	7.72
241.405	8.16
241.877	8.1
242.349	8.57
242.821	7.39
243.293	7.96
243.765	7.36
244.237	7.72
244.71	8.47
245.181	7.53
245.653	8.26
246.125	8.39
246.597	7.79
247.069	7.78
247.541	7.26
248.013	7.76
248.485	7.26
248.956	7.69
249.428	6.51
249.9	7.95
250.371	7.41
250.843	7.79
251.315	6.93
251.786	7.12
252.258	6.84
252.729	7.22
253.201	6.9
253.672	6.68
254.144	6.3
254.615	7.19
255.086	6.96
255.558	6.49
256.029	6.92
256.5	7.16
256.972	7.16
257.443	6.19
257.914	6.87
258.385	7.41
258.856	6.59
259.327	6.75
259.799	6.52
260.27	6.56
260.741	7.2
261.212	6.71
261.683	6.48
262.154	6.37
262.624	6.57
263.095	6.91
263.566	6.78
264.037	6.98
264.508	6.63
264.979	6.62
265.449	6.55
265.92	6.93
266.391	6.62
266.861	6.99
267.332	6.3
267.803	6.97
268.273	6.92
268.744	6.45
269.214	6.82
269.685	6.61
270.155	6.62
270.626	7.18
271.096	6.7
271.566	6.99
272.037	6.77
272.507	6.96
272.977	6.86
273.448	6.46
273.918	6.75
274.388	6.98
274.858	6.46
275.328	6.66
275.798	7.31
276.268	6.76
276.738	7.21
277.208	7.48
277.678	7.47
278.148	6.96
278.618	7.26
279.088	6.86
279.558	6.27
280.028	6.98
280.498	6.55
280.968	6.71
281.437	6.39
281.907	7.08
282.377	6.7
282.847	6.75
283.316	6.26
283.786	6.19
284.255	6.6
284.725	7.13
285.194	6.69
285.664	6.69
286.133	6.5
286.603	6.68
287.072	6.77
287.542	7
288.011	7.23
288.48	6.73
288.95	6.44
289.419	6.69
289.888	7.01
290.357	6.63
290.827	6.69
291.296	6.55
291.765	6.8
292.234	7.16
292.703	6.21
293.172	6.56
293.641	6.43
294.11	6.74
294.579	6.85
295.048	6.7
295.517	6.64
295.986	6.94
296.455	6.6
296.923	7.07
297.392	6.66
297.861	6.83
298.33	6.47
298.798	6.96
299.267	7.09
299.736	7.38
300.204	7.04
300.673	6.89
301.141	7.21
301.61	6.71
302.079	7.31
302.547	7.04
303.015	6.3
303.484	6.7
303.952	6.59
304.421	6.71
304.889	7
305.357	7.01
305.825	7.16
306.294	6.71
306.762	7.11
307.23	7.18
307.698	7.13
308.166	6.87
308.634	7.26
309.103	7.12
309.571	7.1
310.039	7.41
310.507	6.46
310.975	7.18
311.442	6.96
311.91	6.95
312.378	7.52
312.846	6.85
313.314	8.13
313.782	7.51
314.249	7.41
314.717	7.91
315.185	7.46
315.652	7.23
316.12	8.2
316.588	7.14
317.055	7.21
317.523	7.13
317.99	7.24
318.458	7.39
318.925	7.68
319.393	7.31
319.86	7.45
320.328	6.96
320.795	7.7
321.262	7.43
321.73	7.94
322.197	7.37
322.664	8.23
323.131	7.44
323.598	8.22
324.066	8.14
324.533	8.58
325	8.36
325.467	8.89
325.934	8.82
326.401	9.63
326.868	9.58
327.335	9.8
327.802	10.36
328.269	10.66
328.735	10.26
329.202	11.5
329.669	11.57
330.136	11.82
330.603	11.82
331.069	11.71
331.536	12.52
332.003	12.04
332.469	12.67
332.936	12.8
333.402	12.98
333.869	13.68
334.336	13.25
334.802	13.43
335.268	13.55
335.735	13.04
336.201	14.17
336.668	12.97
337.134	14.22
337.6	13.26
338.067	14.27
338.533	12.99
338.999	14.05
339.465	13.5
339.931	13.83
340.398	13.76
340.864	14.1
341.33	13.83
341.796	13.88
342.262	13.66
342.728	14.37
343.194	14.03
343.66	14.41
344.126	13.89
344.592	13.81
345.057	13.48
345.523	14.39
345.989	13.89
346.455	13.66
346.921	13.91
347.386	13.85
347.852	13.54
348.318	14.03
348.783	14.02
349.249	13.87
349.714	13.83
350.18	14.11
350.645	14.05
351.111	14.32
351.576	13.92
352.042	14.37
352.507	14.09
352.973	14.31
353.438	13.64
353.903	13.04
354.369	14.01
354.834	13.95
355.299	13.67
355.764	13.67
356.229	14.03
356.695	13.96
357.16	14.01
357.625	14.27
358.09	14.72
358.555	14.03
359.02	14.08
359.485	13.95
359.95	14.02
360.415	14.18
360.879	14.16
361.344	14.5
361.809	14.02
362.274	14.09
362.739	14.69
363.203	14.65
363.668	14.68
364.133	14.4
364.597	14.81
365.062	14.6
365.527	14.43
365.991	14.66
366.456	14.32
366.92	14.45
367.385	14.57
367.849	14.52
368.314	14.51
368.778	14.97
369.242	14.69
369.707	15.25
370.171	15.12
370.635	14.83
371.1	14.62
371.564	14.83
372.028	15.38
372.492	14.61
372.956	14.56
373.42	14.84
373.884	15.13
374.348	14.9
374.812	15.13
375.276	14.87
375.74	14.95
376.204	14.61
376.668	15.46
377.132	15.56
377.596	14.88
378.06	15.19
378.524	15.39
378.987	15.51
379.451	15.38
379.915	15.96
380.378	14.91
380.842	15.89
381.306	15.14
381.769	15.69
382.233	16.12
382.696	15.75
383.16	15.27
383.623	16.62
384.087	15.67
384.55	16.31
385.014	15.51
385.477	15.98
385.94	15.55
386.404	16.25
386.867	16.04
387.33	15.88
387.793	16.05
388.256	15.96
388.72	16.64
389.183	16.24
389.646	15.72
390.109	16.7
390.572	16.09
391.035	16.46
391.498	16.56
391.961	16.21
392.424	16.53
392.887	16.17
393.35	16.38
393.812	16.29
394.275	16.7
394.738	17.22
395.201	16.55
395.664	16.69
396.126	16.57
396.589	16.77
397.052	16.5
397.514	17.04
397.977	16.48
398.439	17.25
398.902	16.68
399.364	16.36
399.827	17.53
400.289	16.54
400.752	16.86
401.214	16.61
401.676	16.11
402.139	16.73
402.601	17.75
403.063	16.64
403.525	16.34
403.988	16.85
404.45	16.76
404.912	16.72
405.374	16.66
405.836	16.8
406.298	17.16
406.76	16.47
407.222	17.1
407.684	16.77
408.146	17.19
408.608	17
409.07	17.65
409.532	16.95
409.994	17.55
410.456	16.7
410.917	17.2
411.379	17.17
411.841	17.06
412.303	17.39
412.764	17.44
413.226	17.04
413.687	17.46
414.149	16.84
414.611	17.28
415.072	17.57
415.534	17.56
415.995	17.34
416.457	17.59
416.918	17.5
417.379	17.67
417.841	17.44
418.302	17.49
418.763	18.24
419.225	17.57
419.686	17.67
420.147	17.89
420.608	17.93
421.069	17.63
421.53	18.39
421.991	17.67
422.453	17.49
422.914	18.52
423.375	18.41
423.836	18.64
424.297	18.22
424.757	18.68
425.218	17.95
425.679	17.36
426.14	18.19
426.601	18.1
427.062	18.5
427.522	18.47
427.983	18.23
428.444	18.71
428.904	18.44
429.365	19.48
429.826	18.74
430.286	17.58
430.747	17.78
431.207	19.05
431.668	18.2
432.128	18.85
432.589	18.76
433.049	18.21
433.509	19.48
433.97	17.95
434.43	19.18
434.89	19.47
435.351	18.51
435.811	19.15
436.271	19.62
436.731	18.74
437.191	18.89
437.651	19.36
438.112	19.35
438.572	20.31
439.032	18.75
439.492	18.71
439.952	18.8
440.412	19.39
440.871	19.55
441.331	18.93
441.791	18.26
442.251	19.21
442.711	18.78
443.171	18.27
443.63	18.49
444.09	18.84
444.55	18.72
445.009	19.66
445.469	18.32
445.929	19.56
446.388	19.2
446.848	20.23
447.307	18.75
447.767	19.54
448.226	19.01
448.686	19.98
449.145	19.4
449.604	19.37
450.064	18.93
450.523	19.54
450.982	19.19
451.442	19.71
451.901	19.77
452.36	19.2
452.819	19.49
453.278	19.53
453.737	18.85
454.197	19.49
454.656	19.7
455.115	20.09
455.574	19.57
456.033	19.53
456.492	19.91
456.95	19.89
457.409	20.02
457.868	19.6
458.327	19.74
458.786	19.73
459.245	20.38
459.703	19.87
460.162	20.16
460.621	19.74
461.079	20.03
461.538	19.84
461.997	20.37
462.455	19.55
462.914	20.35
463.372	20.5
463.831	20
464.289	20.27
464.748	20.98
465.206	19.45
465.664	19.79
466.123	19.49
466.581	20.87
467.039	20.95
467.497	20.16
467.956	19.73
468.414	20.69
468.872	20.92
469.33	20.68
469.788	20.4
470.246	20.77
470.704	20.93
471.162	20.73
471.62	20.75
472.078	20.6
472.536	21.22
472.994	20.99
473.452	21.1
473.91	21.61
474.368	20.56
474.826	20.08
475.283	20.94
475.741	21.93
476.199	20.76
476.656	21.57
477.114	21.15
477.572	20.25
478.029	20.99
478.487	20.15
478.944	21.22
479.402	21.29
479.859	20.82
480.317	20.38
480.774	20.45
481.232	21.55
481.689	20.68
482.146	21.97
482.604	21.83
483.061	21.16
483.518	20.87
483.975	20.54
484.433	22.07
484.89	20.99
485.347	20.84
485.804	21.07
486.261	21.96
486.718	20.71
487.175	23.04
487.632	20.81
488.089	21.81
488.546	21.6
489.003	21.15
489.46	21.63
489.917	20.94
490.373	21.68
490.83	20.93
491.287	21.71
491.744	21.26
492.2	22.74
492.657	21.66
493.114	20.07
493.57	21.49
494.027	20.75
494.484	22.42
494.94	20.62
495.397	20.8
495.853	21.01
496.31	19.98
496.766	21.33
497.222	21.64
497.679	21.7
498.135	21.78
498.591	21.64
499.048	21.45
499.504	21.47
499.96	21.55
500.416	21.79
500.872	21.62
501.329	21.42
501.785	22.61
502.241	22.3
502.697	22.41
503.153	20.67
503.609	23.23
504.065	21.09
504.521	23.01
504.977	22.25
505.432	21.44
505.888	21.87
506.344	21.57
506.8	21.26
507.256	22.32
507.711	21.01
508.167	20.92
508.623	21.93
509.078	21.79
509.534	21.87
509.99	21.4
510.445	21.37
510.901	21.11
511.356	21.69
511.812	21.91
512.267	21.29
512.722	21.62
513.178	21.62
513.633	21.7
514.089	22.31
514.544	21.99
514.999	22.04
515.454	21.39
515.91	22.18
516.365	22.65
516.82	22.19
517.275	21.89
517.73	21.96
518.185	21.33
518.64	21.81
519.095	21.04
519.55	22.05
520.005	21.15
520.46	21.96
520.915	21.93
521.37	21.61
521.825	22.66
522.28	21.5
522.734	22.45
523.189	21.76
523.644	21.81
524.099	22.23
524.553	21.64
525.008	22.75
525.462	22.53
525.917	22.93
526.372	21.69
526.826	22.54
527.281	22.75
527.735	22.74
528.19	22.16
528.644	22.75
529.098	21.77
529.553	21.99
530.007	22.42
530.461	22.48
530.916	22.12
531.37	23.27
531.824	21.47
532.278	22.43
532.732	23.44
533.186	22.65
533.641	22.72
534.095	22.71
534.549	23.1
535.003	22.72
535.457	22.74
535.911	22.23
536.365	22.63
536.818	22.44
537.272	22.8
537.726	22.67
538.18	23.6
538.634	22.54
539.087	23.87
539.541	22.02
539.995	21.94
540.449	22.2
540.902	23.16
541.356	22.99
541.809	23.08
542.263	23.07
542.716	23.8
543.17	23.46
543.623	22.71
544.077	23.19
544.53	23.52
544.984	22.5
545.437	22.19
545.89	23.34
546.344	22.93
546.797	23.48
547.25	23.06
547.703	23.05
548.157	23.73
548.61	22.96
549.063	23.61
549.516	24.05
549.969	22.84
550.422	23.58
550.875	23.32
551.328	23.72
551.781	23.11
552.234	23.99
552.687	23.76
553.14	23.04
553.592	23.04
554.045	23.63
554.498	23.4
554.951	23.63
555.404	23.05
555.856	23.14
556.309	23.69
556.762	23.44
557.214	23.62
557.667	23.79
558.119	23.64
558.572	23.26
559.024	22.75
559.477	24.46
559.929	23.71
560.382	23.65
560.834	23.65
561.286	23.78
561.739	23.43
562.191	23.73
562.643	24.08
563.095	23.74
563.548	23.87
564	23.5
564.452	23.94
564.904	24.16
565.356	23.11
565.808	23.48
566.26	23.74
566.712	22.91
567.164	23.73
567.616	23.66
568.068	23.61
568.52	23.46
568.972	23.85
569.424	23.71
569.876	23.88
570.327	23.41
570.779	23.54
571.231	23.58
571.682	24.07
572.134	23.59
572.586	23.95
573.037	24.11
573.489	23.7
573.941	23.73
574.392	23.81
574.844	23.14
575.295	23.24
575.746	24.27
576.198	23.63
576.649	23.58
577.101	23.98
577.552	23.51
578.003	23.78
578.454	23.16
578.906	23.34
579.357	24.04
579.808	23.79
580.259	23.19
580.71	24.01
581.161	23.19
581.612	23.18
582.064	23.72
582.515	23.44
582.965	23.88
583.416	23.88
583.867	24.36
584.318	22.93
584.769	23.95
585.22	24.46
585.671	23.83
586.122	24.41
586.572	23.31
587.023	24.36
587.474	23.13
587.924	23.54
588.375	23.32
588.826	23.41
589.276	23.9
589.727	24.14
590.177	23.82
590.628	24.02
591.078	23.48
591.529	23.88
591.979	23.82
592.429	23.96
592.88	23.48
593.33	23.37
593.78	24.07
594.231	23.75
594.681	24.74
595.131	23.35
595.581	24.34
596.031	24.33
596.481	23.18
596.932	24.27
597.382	23.47
597.832	23.38
598.282	24.58
598.732	23.56
599.182	24.29
599.632	23.9
600.081	23.32
600.531	23.29
600.981	23.29
601.431	24.56
601.881	24.01
602.33	24.02
602.78	24.09
603.23	24.45
603.679	23.49
604.129	23.69
604.579	24.53
605.028	23.25
605.478	24.25
605.927	24.29
606.377	23.57
606.826	24.1
607.276	23.49
607.725	23.72
608.175	23.76
608.624	24.2
609.073	24.02
609.522	23.86
609.972	24.61
610.421	23.52
610.87	23.63
611.319	23.92
611.768	24.47
612.218	23.72
612.667	23.65
613.116	23.67
613.565	24.08
614.014	24.47
614.463	23.66
614.912	24.39
615.361	23.69
615.81	23.95
616.258	23.8
616.707	23.68
617.156	24.13
617.605	24.18
618.054	23.85
618.502	24.28
618.951	23.67
619.4	23.96
619.848	24.2
620.297	24.06
620.745	24.05
621.194	23.6
621.642	23.75
622.091	24.18
622.539	23.34
622.988	23.96
623.436	23.77
623.885	24.18
624.333	23.58
624.781	23.71
625.23	24.02
625.678	23.95
626.126	24.28
626.574	23.63
627.022	23.62
627.471	23.95
627.919	24.02
628.367	23.79
628.815	23.22
629.263	23.84
629.711	23.83
630.159	23.75
630.607	23.7
631.055	23.52
631.503	23.92
631.95	23.5
632.398	23.3
632.846	23.4
633.294	23.18
633.742	23.99
634.189	24.09
634.637	24.3
635.085	23.9
635.532	23.91
635.98	24.17
636.427	23.76
636.875	24.32
637.323	23.64
637.77	23.75
638.217	23.8
638.665	23.74
639.112	23.63
639.56	24.16
640.007	23.91
640.454	23.44
640.902	23.74
641.349	24.12
641.796	24.25
642.243	23.37
642.69	23.76
643.138	23.99
643.585	23.18
644.032	23.46
644.479	23.47
644.926	23.81
645.373	23.66
645.82	23.86
646.267	24.14
646.714	23.64
647.161	24.09
647.607	23.39
648.054	23.76
648.501	23.63
648.948	23.66
649.395	24.01
649.841	23.73
650.288	24.3
650.735	24.24
651.181	23.44
651.628	23.79
652.075	24.32
652.521	23.52
652.968	23.83
653.414	23.34
653.861	24.23
654.307	23.46
654.753	23.68
655.2	23.74
655.646	23.27
656.092	23.93
656.539	23.94
656.985	23.38
657.431	23.49
657.877	23.71
658.324	23.7
658.77	23.43
659.216	23.78
659.662	23.98
660.108	23.68
660.554	23.66
661	23.67
661.446	23.54
661.892	24.17
662.338	24.25
662.784	24
663.23	23.67
663.675	24.09
664.121	23.89
664.567	24.24
665.013	24.1
665.458	24.17
665.904	24.14
666.35	23.64
666.795	23.59
667.241	23.73
667.687	23.73
668.132	23.59
668.578	23.34
669.023	23.67
669.469	24.45
669.914	24.11
670.359	23.74
670.805	23.52
671.25	23.84
671.695	23.73
672.141	24.03
672.586	23.74
673.031	24.02
673.476	24.11
673.922	24.16
674.367	23.85
674.812	23.48
675.257	24.29
675.702	24
676.147	23.9
676.592	23.79
677.037	24.26
677.482	24.04
677.927	23.86
678.372	23.57
678.817	23.75
679.261	23.84
679.706	24.13
680.151	23.92
680.596	23.73
681.04	23.81
681.485	23.63
681.93	23.86
682.374	23.98
682.819	23.62
683.264	23.89
683.708	24.26
684.153	23.96
684.597	23.98
685.042	23.9
685.486	24.29
685.93	23.18
686.375	24.23
686.819	24.08
687.263	23.82
687.708	23.86
688.152	23.57
688.596	23.73
689.04	23.98
689.485	23.52
689.929	23.89
690.373	23.99
690.817	23.53
691.261	23.85
691.705	23.71
692.149	24.14
692.593	24.19
693.037	24.12
693.481	24.4
693.925	24.2
694.369	23.72
694.812	23.61
695.256	24.05
695.7	23.89
696.144	23.74
696.587	23.88
697.031	24.34
697.475	24.41
697.918	23.78
698.362	24.31
698.806	23.67
699.249	23.5
699.693	23.93
700.136	23.73
700.58	23.72
701.023	24.17
701.466	23.91
701.91	23.68
702.353	23.87
702.796	23.26
703.24	24.47
703.683	23.81
704.126	23.49
704.569	23.51
705.013	23.51
705.456	23.96
705.899	24.18
706.342	23.91
706.785	23.5
707.228	23.71
707.671	23.54
708.114	23.55
708.557	23.76
709	23.88
709.443	23.68
709.886	23.88
710.328	23.71
710.771	23.88
711.214	23.71
711.657	23.74
712.099	23.47
712.542	23.89
712.985	23.95
713.427	23.62
713.87	23.52
714.313	24.24
714.755	23.7
715.198	23.24
715.64	24.09
716.083	23.44
716.525	23.43
716.967	23.68
717.41	23.69
717.852	23.22
718.295	23.95
718.737	23.49
719.179	23.62
719.621	23.91
720.063	23.51
720.506	23.68
720.948	23.54
721.39	23.52
721.832	23.3
722.274	23.32
722.716	23.88
723.158	23.73
723.6	23.63
724.042	24
724.484	23.78
724.926	23.45
725.368	23.3
725.81	23.57
726.251	23.96
726.693	23.66
727.135	23.9
727.577	24.05
728.018	23.88
728.46	23.51
728.902	23.84
729.343	23.56
729.785	23.79
730.226	23.64
730.668	23.62
731.109	23.84
731.551	24.03
731.992	23.42
732.434	23.32
732.875	23.5
733.316	23.57
733.758	23.56
734.199	23.73
734.64	23.92
735.081	23.38
735.523	23.42
735.964	23.9
736.405	23.64
736.846	23.33
737.287	23.74
737.728	24.07
738.169	23.68
738.61	23.4
739.051	23.75
739.492	23.75
739.933	23.03
740.374	23.85
740.815	23.23
741.256	23.7
741.696	23.46
742.137	23.37
742.578	23.93
743.019	23.6
743.459	24.05
743.9	23.88
744.341	23.3
744.781	23.73
745.222	23.85
745.662	23.47
746.103	23.66
746.543	23.5
746.984	23.76
747.424	23.35
747.865	23.46
748.305	22.97
748.745	23.59
749.186	23.27
749.626	23.41
750.066	23.68
750.506	23.76
750.947	23.79
751.387	23.4
751.827	23.33
752.267	23.86
752.707	22.96
753.147	23.85
753.587	23.55
754.027	23.87
754.467	23.97
754.907	24.02
755.347	23.16
755.787	24.07
756.227	23.64
756.667	23.54
757.107	23.62
757.546	23.55
757.986	23.8
758.426	23.56
758.865	23.62
759.305	23.64
759.745	23.59
760.184	23.21
760.624	23.36
761.063	23.69
761.503	23.61
761.943	23.74
762.382	23.81
762.821	23.51
763.261	23.58
763.7	23.39
764.14	23.55
764.579	23.29
765.018	24.03
765.457	23.34
765.897	23.24
766.336	23.6
766.775	23.73
767.214	23.56
767.653	22.9
768.092	23.43
768.531	23.81
768.97	23.78
769.409	23.68
769.848	23.6
770.287	23.38
770.726	23.51
771.165	23.49
771.604	23.15
772.043	23.59
772.482	23.73
772.92	23.63
773.359	23.43
773.798	23.29
774.237	23.07
774.675	23.19
775.114	23.75
775.553	23.54
775.991	23.25
776.43	23.5
776.868	22.98
777.307	24.03
777.745	23.47
778.184	23.76
778.622	23.47
779.06	23.29
779.499	23.66
779.937	23.49
780.375	23.72
780.814	23.22
781.252	23.4
781.69	23.28
782.128	23.66
782.566	23.05
783.004	23.18
783.443	23.66
783.881	23.49
784.319	23.59
784.757	23.53
785.195	23.4
785.633	23.57
786.071	23.68
786.508	23.65
786.946	23.71
787.384	23.25
787.822	23.61
788.26	23.33
788.697	23.2
789.135	23.49
789.573	23.08
790.011	23.47
790.448	23.4
790.886	23.61
791.323	23.71
791.761	23.59
792.198	23.58
792.636	23.25
793.073	23.12
793.511	23.69
793.948	23.56
794.386	23.26
794.823	23.46
795.26	23.76
795.698	23.11
796.135	23.55
796.572	23.27
797.009	23.53
797.446	23.47
797.884	23.5
798.321	23.13
798.758	23.56
799.195	23.25
799.632	23.65
800.069	23.39
800.506	23.6
800.943	23.49
801.38	23.4
801.817	23.23
802.254	23.23
802.69	23.43
803.127	23.28
803.564	23.27
804.001	23.48
804.438	23.38
804.874	23.23
805.311	23.4
805.748	23.21
806.184	23.35
806.621	23.25
807.057	23.25
807.494	23.56
807.93	23.32
808.367	23.42
808.803	23.3
809.24	23.34
809.676	23.52
810.112	23.33
810.549	23.29
810.985	23.49
811.421	23.34
811.857	23.49
812.294	23.36
812.73	23.85
813.166	23.74
813.602	23.58
814.038	23.32
814.474	23.13
814.91	23.23
815.346	23.76
815.782	23.27
816.218	23.62
816.654	23.73
817.09	23.41
817.526	23.09
817.962	23.47
818.398	23.33
818.833	23.51
819.269	23.43
819.705	23.02
820.141	23.39
820.576	23.44
821.012	23.24
821.447	23.8
821.883	23.34
822.319	23.57
822.754	23.78
823.19	23.26
823.625	23.4
824.061	23.54
824.496	23.24
824.931	23.26
825.367	23.61
825.802	23.72
826.237	23.79
826.673	23.17
827.108	23.1
827.543	23.11
827.978	23.41
828.413	23.35
828.849	23.58
829.284	23.41
829.719	23.19
830.154	23.45
830.589	23.34
831.024	23.57
831.459	23.16
831.894	23.4
832.329	23.58
832.763	23.69
833.198	23.39
833.633	23.17
834.068	23.56
834.503	23.48
834.937	23.67
835.372	23.31
835.807	23.02
836.241	23.31
836.676	23.52
837.111	23.18
837.545	23.42
837.98	23.05
838.414	23.48
838.849	22.71
839.283	23.18
839.717	22.88
840.152	23.4
840.586	23.23
841.021	23.47
841.455	23.13
841.889	23.74
842.323	22.69
842.758	23.1
843.192	23.25
843.626	23.67
844.06	23.38
844.494	23.41
844.928	23.05
845.362	23.19
845.796	23.08
846.23	23.33
846.664	23.49
847.098	23.39
847.532	23.24
847.966	23.23
848.4	23.33
848.834	23.18
849.267	23.05
849.701	23.22
850.135	23.26
850.569	23.04
851.002	23.34
851.436	22.82
851.87	23.09
852.303	23.28
852.737	23.07
853.17	23.02
853.604	23.14
854.037	23.1
854.471	23.18
854.904	23.3
855.337	22.9
855.771	22.97
856.204	23.09
856.637	23.39
857.071	23.02
857.504	23.33
857.937	23.37
858.37	23.24
858.804	23.17
859.237	22.98
859.67	23.34
860.103	23.47
860.536	23.03
860.969	23.01
861.402	23.12
861.835	22.87
862.268	23.13
862.701	23.29
863.134	23.32
863.566	22.82
863.999	23.07
864.432	23.24
864.865	22.82
865.298	23.28
865.73	23.08
866.163	23.41
866.596	22.81
867.028	22.98
867.461	23.09
867.893	23.23
868.326	22.9
868.758	23.3
869.191	22.82
869.623	23.34
870.056	23.24
870.488	23.23
870.92	22.91
871.353	23.22
871.785	22.9
872.217	23.04
872.65	22.92
873.082	23.11
873.514	23.04
873.946	22.96
874.378	23.06
874.81	22.71
875.243	23.1
875.675	22.83
876.107	22.93
876.539	23.1
876.971	22.83
877.403	23.02
877.834	22.99
878.266	22.94
878.698	22.8
879.13	23.37
879.562	23.13
879.994	22.98
880.425	23.09
880.857	23.01
881.289	23.11
881.72	22.99
882.152	22.96
882.584	22.97
883.015	23.06
883.447	22.69
883.878	22.92
884.31	23.02
884.741	22.88
885.173	23.11
885.604	23.13
886.035	22.85
886.467	22.66
886.898	22.82
887.329	23
887.76	22.96
888.192	23.06
888.623	22.95
889.054	23
889.485	22.97
889.916	22.89
890.347	23.28
890.778	22.98
891.209	22.81
891.64	23.13
892.071	23.11
892.502	23.26
892.933	22.94
893.364	22.95
893.795	22.92
894.226	23.23
894.657	22.88
895.087	22.98
895.518	23.1
895.949	22.94
896.38	23.16
896.81	23.18
897.241	22.68
897.671	23.1
898.102	23.15
898.533	22.75
898.963	22.79
899.394	23.14
899.824	23.03
900.254	22.81
900.685	22.65
901.115	23.15
901.546	23.02
901.976	22.54
902.406	22.81
902.836	22.84
903.267	22.89
903.697	22.67
904.127	22.54
904.557	22.68
904.987	22.98
905.417	22.78
905.847	22.76
906.277	22.78
906.707	22.83
907.137	22.72
907.567	22.7
907.997	22.95
908.427	22.93
908.857	22.9
909.287	22.84
909.717	22.87
910.146	22.88
910.576	22.89
911.006	22.9
911.436	23.08
911.865	22.73
912.295	22.78
912.724	22.72
913.154	22.83
913.584	22.94
914.013	22.95
914.443	22.74
914.872	22.67
915.302	22.99
915.731	22.85
916.16	23.07
916.59	22.83
917.019	22.7
917.448	22.73
917.878	22.86
918.307	22.83
918.736	22.76
919.165	22.78
919.594	22.67
920.023	22.75
920.452	22.6
920.882	22.98
921.311	22.86
921.74	22.9
922.169	22.96
922.597	22.62
923.026	22.69
923.455	22.85
923.884	22.87
924.313	22.82
924.742	22.7
925.171	23.06
925.599	23.09
926.028	22.82
926.457	22.91
926.885	22.93
927.314	22.96
927.743	22.99
928.171	22.45
928.6	22.8
929.028	22.9
929.457	23.01
929.885	22.82
930.314	22.89
930.742	22.93
931.17	22.62
931.599	22.6
932.027	22.56
932.455	22.69
932.884	22.81
933.312	22.59
933.74	22.51
934.168	22.84
934.596	22.44
935.025	22.82
935.453	22.59
935.881	22.68
936.309	22.5
936.737	22.23
937.165	22.41
937.593	22.36
938.021	22.55
938.449	22.82
938.876	22.64
939.304	22.32
939.732	22.41
940.16	22.31
940.588	22.4
941.015	22.83
941.443	22.55
941.871	22.46
942.298	22.69
942.726	22.58
943.154	22.73
943.581	22.49
944.009	22.53
944.436	22.31
944.864	22.63
945.291	23.05
945.718	22.57
946.146	22.33
946.573	22.39
947.001	22.2
947.428	22.29
947.855	22.86
948.282	22.53
948.71	22.49
949.137	22.51
949.564	22.82
949.991	22.72
950.418	22.32
950.845	22.53
951.272	22.63
951.699	22.47
952.126	22.92
952.553	22.78
952.98	22.61
953.407	22.33
953.834	22.47
954.261	22.68
954.688	22.52
955.114	22.73
955.541	22.43
955.968	22.54
956.395	22.42
956.821	22.66
957.248	22.33
957.674	22.49
958.101	22.36
958.528	22.35
958.954	22.24
959.381	22.41
959.807	22.51
960.234	22.37
960.66	22.19
961.086	22.47
961.513	22.43
961.939	22.29
962.365	22.63
962.792	22.34
963.218	22.13
963.644	22.35
964.07	22.02
964.496	22.26
964.923	22.29
965.349	22.21
965.775	22.55
966.201	22.26
966.627	22.32
967.053	22.24
967.479	22.38
967.905	22.27
968.331	22.17
968.756	22.19
969.182	22.26
969.608	22.35
970.034	22.2
970.46	22.24
970.885	22.36
971.311	22.38
971.737	22.41
972.162	22.22
972.588	22.29
973.014	22.2
973.439	22.31
973.865	22.25
974.29	22.26
974.716	22.24
975.141	22.28
975.567	22.37
975.992	22.16
976.417	22.16
976.843	22.48
977.268	22.5
977.693	22.66
978.119	22.7
978.544	23.03
978.969	22.86
979.394	22.75
979.819	22.96
980.244	22.72
980.669	22.84
981.095	22.94
981.52	22.87
981.945	22.89
982.369	23.07
982.794	22.96
983.219	22.84
983.644	22.84
984.069	22.71
984.494	22.62
984.919	22.56
985.343	22.57
985.768	22.27
986.193	22.31
986.618	22.44
987.042	22.21
987.467	22.5
987.891	22.42
988.316	22.36
988.741	22.35
989.165	22.69
989.59	22.46
990.014	22.64
990.438	22.61
990.863	22.84
991.287	22.64
991.712	22.52
992.136	22.43
992.56	22.47
992.984	22.53
993.409	22.63
993.833	22.69
994.257	22.52
994.681	22.66
995.105	22.56
995.529	22.52
995.953	22.39
996.377	22.46
996.801	22.67
997.225	22.68
997.649	22.45
998.073	22.74
998.497	22.73
998.921	22.59
999.345	22.58
999.769	22.43
1000.192	22.49
1000.616	22.6
1001.04	22.82
1001.464	22.55
1001.887	22.47
1002.311	22.53
1002.734	22.46
1003.158	22.52
1003.582	22.26
1004.005	22.1
1004.429	22.09
1004.852	21.98
1005.275	22.32
1005.699	22.14
1006.122	22.25
1006.546	22.04
1006.969	22.28
1007.392	22.07
1007.815	22.3
1008.239	22.35
1008.662	22.1
1009.085	22.19
1009.508	22.12
1009.931	22.16
1010.354	22.32
1010.778	22.13
1011.201	22.17
1011.624	22.29
1012.047	22.11
1012.469	22.1
1012.892	22.08
1013.315	22.16
1013.738	22.09
1014.161	22.38
1014.584	22.14
1015.007	22.32
1015.429	22.32
1015.852	22.01
1016.275	22.21
1016.697	22.11
1017.12	22.13
1017.543	22.23
1017.965	21.96
1018.388	22.21
1018.81	22.13
1019.233	22.25
1019.655	22.25
1020.078	22.1
1020.5	21.99
1020.922	22.01
1021.345	22.37
1021.767	22.07
1022.189	22.27
1022.612	22.11
1023.034	22.19
1023.456	22.29
1023.878	22.35
1024.301	21.98
1024.723	21.81
1025.145	22.26
1025.567	22
1025.989	22
1026.411	22.17
1026.833	22.38
1027.255	21.89
1027.677	22.18
1028.099	22.23
1028.52	22.16
1028.942	22.17
1029.364	21.88
1029.786	22.25
1030.208	22.12
1030.629	21.8
1031.051	22.29
1031.473	22.13
1031.894	22.12
1032.316	21.91
1032.738	22.17
1033.159	21.78
1033.581	21.94
1034.002	22.04
1034.424	21.88
1034.845	22.18
1035.267	21.81
1035.688	22.02
1036.109	22.12
1036.531	22.03
1036.952	21.83
1037.373	22.26
1037.794	21.96
1038.216	22.06
1038.637	21.75
1039.058	22.01
1039.479	22.23
1039.9	22.27
1040.321	21.99
1040.742	21.94
1041.163	22.06
1041.584	21.93
1042.005	21.99
1042.426	21.89
1042.847	21.97
1043.268	22.09
1043.689	21.79
1044.11	21.86
1044.53	22.04
1044.951	21.82
1045.372	21.97
1045.793	22
1046.213	21.75
1046.634	22.46
1047.055	22.19
1047.475	21.76
1047.896	22.06
1048.316	21.84
1048.737	22.19
1049.157	21.99
1049.578	21.99
1049.998	21.98
1050.419	22.17
1050.839	21.76
1051.259	21.93
1051.68	22
1052.1	22.1
1052.52	22.08
1052.94	21.85
1053.361	22
1053.781	22.03
1054.201	21.71
1054.621	22.34
1055.041	22.48
1055.461	22.42
1055.881	21.89
1056.301	22.15
1056.721	22.17
1057.141	22.46
1057.561	22.2
1057.981	22.2
1058.401	21.81
1058.82	21.98
1059.24	22.17
1059.66	22.1
1060.08	22.22
1060.499	22.42
1060.919	21.62
1061.339	22.26
1061.758	22.56
1062.178	22.22
1062.598	22.07
1063.017	21.62
1063.437	21.9
1063.856	21.7
1064.276	22.46
1064.695	21.67
1065.114	22.21
1065.534	22.66
1065.953	21.99
1066.372	22.1
1066.792	22.01
1067.211	21.71
1067.63	22.55
1068.049	22.35
1068.469	21.83
1068.888	21.65
1069.307	21.82
1069.726	22.1
1070.145	21.81
1070.564	21.5
1070.983	21.77
1071.402	22.41
1071.821	21.73
1072.24	21.97
1072.659	21.93
1073.078	21.99
1073.496	21.83
1073.915	21.7
1074.334	22.24
1074.753	22.74
1075.171	22.08
1075.59	21.58
1076.009	21.69
1076.427	22.29
1076.846	22.2
1077.265	21.82
1077.683	22.28
1078.102	22.13
1078.52	21.63
1078.939	21.98
1079.357	21.67
1079.776	22.21
1080.194	21.43
1080.612	22.23
1081.031	22.1
1081.449	22.32
1081.867	21.42
1082.285	22.05
1082.704	22.16
1083.122	21.81
1083.54	22.41
1083.958	21.73
1084.376	21.92
1084.794	21.76
1085.212	22.6
1085.63	21.85
1086.048	22.12
1086.466	21.92
1086.884	21.88
1087.302	22.04
1087.72	21.75
1088.138	21.96
1088.555	21.93
1088.973	21.4
1089.391	21.55
1089.809	21.61
1090.226	21.82
1090.644	22.79
1091.062	21.49
1091.479	21.97
1091.897	21.48
1092.314	22.04
1092.732	21.97
1093.15	22.12
1093.567	22.01
1093.984	21.23
1094.402	21.19
1094.819	21.89
1095.237	22.26
1095.654	21.48
1096.071	21.53
1096.488	21.56
1096.906	22.25
1097.323	21.64
1097.74	22
1098.157	21.72
1098.574	21.88
1098.991	21.48
1099.409	21.3
1099.826	22.16
1100.243	21.56
1100.66	22.5
1101.077	21.9
1101.494	21.22
1101.91	22.19
1102.327	20.91
1102.744	22.1
1103.161	21.61
1103.578	21.86
1103.994	21.41
1104.411	21.19
1104.828	21.73
1105.245	20.96
1105.661	21.57
1106.078	20.33
1106.494	21.42
1106.911	21.12
1107.328	21.77
1107.744	22.61
1108.161	21.02
1108.577	22.08
1108.993	21.41
1109.41	20.06
1109.826	21.55
1110.242	21.61
1110.659	20.23
1111.075	22.12
1111.491	21.36
1111.908	21.74
1112.324	20.63
1112.74	26.08
1113.156	22.08
1113.572	21.23
1113.988	20.36
1114.404	22.3
1114.82	20.75
1115.236	20.32
1115.652	20.49
1116.068	21.21
1116.484	19.67
1116.9	19.96
1117.316	22.06
1117.732	-0
1118.147	18
1118.563	42.86
1118.979	300
