Data from JCR0032_Black2_Reflection_00002.txt Node
Date: Fri Jul 31 14:47:31 ACST 2020
User: Stacey Dix
Spectrometer: MAYP113282
Scans to average: 1
Trigger mode: 0
Integration Time (sec): 1.000000E-1
Electric dark correction enabled: true
Boxcar width: 0
XAxis mode: Wavelengths
Number of Pixels in Spectrum: 2068
>>>>>Begin Spectral Data<<<<<
198.791	0
199.266	47.22
199.74	-116.67
200.215	16.67
200.69	30.5
201.164	9.75
201.639	6.89
202.114	33.13
202.588	16.06
203.063	30.52
203.537	14.69
204.012	30.89
204.486	29.34
204.961	0.23
205.435	26.04
205.909	14.72
206.384	12.31
206.858	44.96
207.332	-2.08
207.807	27.03
208.281	13.7
208.755	22.68
209.229	27.46
209.703	8.41
210.177	24.94
210.651	16.84
211.126	24.57
211.6	13.59
212.074	29.06
212.548	15.71
213.021	21.93
213.495	23.48
213.969	15.04
214.443	22.99
214.917	26.54
215.391	10.56
215.864	14.72
216.338	9.3
216.812	10.38
217.286	23.52
217.759	15.79
218.233	17.03
218.706	15.1
219.18	3.62
219.654	16.07
220.127	22.77
220.6	9.57
221.074	11.94
221.547	9.64
222.021	13.67
222.494	12.98
222.967	7.81
223.441	7.87
223.914	21.28
224.387	11.51
224.86	15.5
225.334	6.63
225.807	10.1
226.28	9.67
226.753	9.72
227.226	11.25
227.699	11.89
228.172	8.55
228.645	8.88
229.118	11.83
229.591	6.78
230.064	8.61
230.537	8.35
231.01	7.79
231.482	6.82
231.955	7.82
232.428	9.58
232.901	7.37
233.373	7.65
233.846	7.54
234.319	8.78
234.791	7.52
235.264	7.28
235.736	7.21
236.209	9.27
236.681	6.62
237.154	9.14
237.626	8.21
238.099	8.43
238.571	7.1
239.044	7.04
239.516	7.33
239.988	6.86
240.46	8.04
240.933	6.52
241.405	7.78
241.877	6.63
242.349	7.04
242.821	6.95
243.293	7.19
243.765	6.53
244.237	6.68
244.71	6.32
245.181	6.81
245.653	6.84
246.125	8.16
246.597	6.35
247.069	6.54
247.541	8.01
248.013	7.3
248.485	6.69
248.956	7.12
249.428	6.79
249.9	7.87
250.371	7.68
250.843	6.08
251.315	7.24
251.786	6.18
252.258	5.9
252.729	6.13
253.201	6.26
253.672	6.15
254.144	6.52
254.615	5.82
255.086	6.29
255.558	6.5
256.029	6.09
256.5	6.59
256.972	5.69
257.443	6.35
257.914	6.01
258.385	5.99
258.856	5.65
259.327	6.1
259.799	5.98
260.27	6.24
260.741	5.45
261.212	6.31
261.683	6.36
262.154	5.56
262.624	6.19
263.095	6.23
263.566	5.39
264.037	6.02
264.508	6.25
264.979	5.64
265.449	5.71
265.92	6.26
266.391	5.67
266.861	6.02
267.332	5.73
267.803	5.77
268.273	5.32
268.744	5.52
269.214	5.26
269.685	5.82
270.155	5.44
270.626	5.95
271.096	5.29
271.566	5.92
272.037	5.71
272.507	5.9
272.977	6.25
273.448	6.33
273.918	5.32
274.388	5.56
274.858	6.14
275.328	5.83
275.798	4.95
276.268	5.91
276.738	4.93
277.208	5.67
277.678	5.72
278.148	5.52
278.618	5.61
279.088	5.66
279.558	5.6
280.028	6.01
280.498	5.21
280.968	6.6
281.437	5.95
281.907	6.29
282.377	5.28
282.847	5.78
283.316	4.72
283.786	5.88
284.255	5.46
284.725	4.95
285.194	5.6
285.664	6.3
286.133	5.32
286.603	5.49
287.072	5.43
287.542	5.33
288.011	5.22
288.48	5.61
288.95	4.97
289.419	5.75
289.888	5.37
290.357	5.58
290.827	4.85
291.296	4.99
291.765	5.31
292.234	5.32
292.703	4.89
293.172	5.41
293.641	4.9
294.11	5.64
294.579	5.05
295.048	4.82
295.517	5.35
295.986	5.71
296.455	5.77
296.923	5.5
297.392	4.99
297.861	5.57
298.33	5.02
298.798	5.92
299.267	5.04
299.736	5.84
300.204	5.2
300.673	4.99
301.141	5.46
301.61	5.77
302.079	5.85
302.547	5.72
303.015	5.24
303.484	5.14
303.952	4.91
304.421	5.08
304.889	5.27
305.357	4.7
305.825	5.69
306.294	5.2
306.762	4.65
307.23	5.46
307.698	5.15
308.166	5.35
308.634	5.82
309.103	5.6
309.571	5.45
310.039	5.35
310.507	5.65
310.975	5.8
311.442	5.3
311.91	4.86
312.378	5.36
312.846	5.05
313.314	5.58
313.782	5.43
314.249	5.65
314.717	5.88
315.185	5.34
315.652	5.39
316.12	5.3
316.588	5.68
317.055	5.63
317.523	5.25
317.99	5.16
318.458	5.1
318.925	5.44
319.393	5.83
319.86	5.54
320.328	6.28
320.795	7.17
321.262	5.41
321.73	7.48
322.197	6.64
322.664	7.03
323.131	6.71
323.598	7.89
324.066	8.35
324.533	6.9
325	8.11
325.467	8.62
325.934	10.14
326.401	10.28
326.868	11.35
327.335	11.13
327.802	11.43
328.269	11.11
328.735	13.67
329.202	14.21
329.669	14.16
330.136	15.63
330.603	15.76
331.069	16.44
331.536	16.38
332.003	17.61
332.469	17.82
332.936	17.94
333.402	17.53
333.869	17.63
334.336	18.92
334.802	18.88
335.268	19.25
335.735	18.95
336.201	18.64
336.668	19.51
337.134	19.9
337.6	18.72
338.067	18.06
338.533	19.52
338.999	18.07
339.465	18.49
339.931	18.83
340.398	20.11
340.864	19.71
341.33	17.96
341.796	20.16
342.262	19.19
342.728	18.32
343.194	19.7
343.66	20.2
344.126	18.58
344.592	19.26
345.057	19.3
345.523	20.06
345.989	18.76
346.455	18.67
346.921	19.73
347.386	19.44
347.852	19.58
348.318	19.58
348.783	18.96
349.249	19.11
349.714	20.15
350.18	19.91
350.645	19.44
351.111	18.65
351.576	20.21
352.042	17.74
352.507	19.53
352.973	19.74
353.438	17.47
353.903	18.8
354.369	19.64
354.834	18.84
355.299	18.42
355.764	19.3
356.229	18.56
356.695	18.86
357.16	20.16
357.625	18.24
358.09	19.05
358.555	19.75
359.02	18.72
359.485	18.74
359.95	18.82
360.415	18.77
360.879	18.52
361.344	18.1
361.809	18.82
362.274	20.03
362.739	17.91
363.203	19.2
363.668	19.79
364.133	18.73
364.597	18.81
365.062	19.49
365.527	21.17
365.991	19.08
366.456	18.31
366.92	17.75
367.385	20.16
367.849	20.71
368.314	19.83
368.778	20.23
369.242	19.58
369.707	20.7
370.171	20.02
370.635	21.75
371.1	20.24
371.564	19.26
372.028	19.99
372.492	20.48
372.956	20.98
373.42	19.6
373.884	20.19
374.348	20.56
374.812	20.2
375.276	20.83
375.74	20.26
376.204	19.78
376.668	20.29
377.132	20.8
377.596	21.21
378.06	20.23
378.524	19.42
378.987	21.16
379.451	22.71
379.915	21.22
380.378	20.95
380.842	22.3
381.306	20.38
381.769	21.16
382.233	21.55
382.696	21.35
383.16	20.47
383.623	21
384.087	20.4
384.55	22.74
385.014	22.26
385.477	21.42
385.94	21.83
386.404	21.39
386.867	21.3
387.33	20.75
387.793	22.92
388.256	22.53
388.72	21.2
389.183	21.64
389.646	21.17
390.109	22.14
390.572	22.32
391.035	22.55
391.498	22.1
391.961	22.28
392.424	21.81
392.887	22.01
393.35	21.59
393.812	23.81
394.275	23.36
394.738	22.35
395.201	21.97
395.664	23.5
396.126	22.6
396.589	22.92
397.052	23.35
397.514	22.74
397.977	21.53
398.439	22.78
398.902	22.27
399.364	22.48
399.827	22.32
400.289	22.65
400.752	21.17
401.214	23.54
401.676	23.57
402.139	23.47
402.601	21.28
403.063	24.05
403.525	22.87
403.988	23.09
404.45	22.67
404.912	23.92
405.374	22.93
405.836	22.26
406.298	22.34
406.76	23.09
407.222	21.11
407.684	22.42
408.146	22.5
408.608	22.05
409.07	22.9
409.532	22.58
409.994	22.49
410.456	22.45
410.917	21.84
411.379	22.31
411.841	22.26
412.303	22.56
412.764	21.76
413.226	23.32
413.687	23.11
414.149	22.39
414.611	22.32
415.072	23.56
415.534	22.47
415.995	22.16
416.457	22.34
416.918	22.1
417.379	23.19
417.841	22.48
418.302	21.33
418.763	22.57
419.225	24.02
419.686	22.17
420.147	23.37
420.608	22.93
421.069	23.11
421.53	22.27
421.991	22.91
422.453	23.67
422.914	22.68
423.375	23.36
423.836	23.62
424.297	24.72
424.757	23.59
425.218	24.39
425.679	23.81
426.14	24.88
426.601	22.93
427.062	23.48
427.522	23.37
427.983	22.8
428.444	22.47
428.904	23.12
429.365	23.8
429.826	24.23
430.286	22.44
430.747	23.7
431.207	23.35
431.668	23.54
432.128	23.71
432.589	25.01
433.049	23.69
433.509	22.41
433.97	25.68
434.43	22.65
434.89	21.7
435.351	24.24
435.811	22.91
436.271	24.08
436.731	22.27
437.191	22.12
437.651	24.72
438.112	23.34
438.572	23.91
439.032	21.55
439.492	22.79
439.952	23.68
440.412	24.44
440.871	22.67
441.331	22.77
441.791	24.95
442.251	26.05
442.711	23.44
443.171	25.1
443.63	22.27
444.09	24.7
444.55	23.52
445.009	24.84
445.469	22.69
445.929	23.18
446.388	23.76
446.848	24.48
447.307	24.5
447.767	25.27
448.226	24.57
448.686	23.1
449.145	23.45
449.604	23.17
450.064	23.4
450.523	21.84
450.982	23.37
451.442	23.32
451.901	23.75
452.36	23.01
452.819	25.49
453.278	22.15
453.737	22.51
454.197	25
454.656	22.25
455.115	22.96
455.574	23.04
456.033	22.96
456.492	23.18
456.95	23.35
457.409	26.75
457.868	24.22
458.327	25.74
458.786	23.31
459.245	23.92
459.703	24.85
460.162	24.78
460.621	22.45
461.079	21.93
461.538	22.86
461.997	22.15
462.455	23.94
462.914	23.65
463.372	21.48
463.831	23.41
464.289	24.03
464.748	25.65
465.206	23
465.664	24.4
466.123	23.01
466.581	23.75
467.039	23.06
467.497	23.79
467.956	22.12
468.414	24.61
468.872	22.14
469.33	25.18
469.788	22.48
470.246	25.28
470.704	21.77
471.162	25.73
471.62	24.87
472.078	22.97
472.536	22.66
472.994	23.64
473.452	24.55
473.91	23.66
474.368	22.99
474.826	21.89
475.283	23.38
475.741	23.19
476.199	23.71
476.656	24.14
477.114	23.33
477.572	22.92
478.029	23.8
478.487	23.02
478.944	22.09
479.402	21.48
479.859	22.81
480.317	24.4
480.774	21.93
481.232	23.63
481.689	22.39
482.146	24.73
482.604	22.88
483.061	21.86
483.518	23.61
483.975	22.3
484.433	23.06
484.89	24.1
485.347	22.43
485.804	20.95
486.261	23.95
486.718	22.39
487.175	22.11
487.632	23.57
488.089	21.92
488.546	20.81
489.003	22.99
489.46	23.8
489.917	22.48
490.373	24.54
490.83	22.58
491.287	22.4
491.744	22.53
492.2	23.89
492.657	23.51
493.114	21.49
493.57	23.23
494.027	21.36
494.484	22.41
494.94	23.06
495.397	23.11
495.853	23.05
496.31	23.47
496.766	22.39
497.222	21.57
497.679	20.85
498.135	22.74
498.591	20.82
499.048	21.18
499.504	22.11
499.96	23.31
500.416	22.15
500.872	22.22
501.329	22.23
501.785	23
502.241	21.03
502.697	23.76
503.153	20.14
503.609	22.92
504.065	22.18
504.521	22.65
504.977	22.32
505.432	22.04
505.888	23.47
506.344	23.02
506.8	23.19
507.256	21.14
507.711	22.58
508.167	23.34
508.623	22.6
509.078	22.31
509.534	22.89
509.99	22.64
510.445	23.48
510.901	22.77
511.356	24.26
511.812	21.57
512.267	22.7
512.722	23.7
513.178	23.61
513.633	22.75
514.089	24.03
514.544	24.44
514.999	23.83
515.454	22.12
515.91	23.63
516.365	22.31
516.82	22.26
517.275	22.81
517.73	23.1
518.185	21.2
518.64	23.79
519.095	24.49
519.55	23.5
520.005	22.12
520.46	22.67
520.915	23.86
521.37	23.15
521.825	23.23
522.28	24.63
522.734	23.7
523.189	22.39
523.644	22.75
524.099	23
524.553	23.95
525.008	22.13
525.462	23.47
525.917	24.25
526.372	22.63
526.826	23.34
527.281	24.35
527.735	23.1
528.19	23.96
528.644	22.9
529.098	23.16
529.553	24
530.007	24.08
530.461	23.83
530.916	22.09
531.37	24.6
531.824	23.63
532.278	23.99
532.732	23.96
533.186	21.76
533.641	23.65
534.095	23.16
534.549	23.25
535.003	23.87
535.457	23.16
535.911	25.12
536.365	23.32
536.818	22.62
537.272	23.14
537.726	24
538.18	24.01
538.634	24.36
539.087	23.53
539.541	22.97
539.995	23.77
540.449	23.64
540.902	24.65
541.356	23.31
541.809	23.89
542.263	24.42
542.716	24.31
543.17	24.89
543.623	22.51
544.077	23.58
544.53	23.16
544.984	24.56
545.437	23.6
545.89	24
546.344	25.38
546.797	24.71
547.25	23.9
547.703	25.08
548.157	23.93
548.61	23.55
549.063	23.42
549.516	22.95
549.969	24.76
550.422	25.9
550.875	24.49
551.328	24.56
551.781	25.45
552.234	24.86
552.687	24
553.14	25.85
553.592	24.44
554.045	24.99
554.498	25.18
554.951	24.33
555.404	23.54
555.856	23.11
556.309	24.69
556.762	24.35
557.214	24.56
557.667	23.31
558.119	24.05
558.572	25.03
559.024	23.92
559.477	24.95
559.929	25.12
560.382	23.74
560.834	24.41
561.286	25.1
561.739	24.18
562.191	25.4
562.643	23.61
563.095	25.37
563.548	25.5
564	25.56
564.452	23.85
564.904	25.13
565.356	24.29
565.808	24.86
566.26	24.34
566.712	26.15
567.164	24.58
567.616	25.61
568.068	24.71
568.52	24.65
568.972	23.07
569.424	24.35
569.876	24.58
570.327	24.15
570.779	25.01
571.231	24.49
571.682	25.84
572.134	25.23
572.586	24.14
573.037	25.22
573.489	24.55
573.941	24.04
574.392	26.05
574.844	24
575.295	24.28
575.746	24.75
576.198	25.11
576.649	25.21
577.101	24.67
577.552	24.98
578.003	25.36
578.454	24.3
578.906	24.48
579.357	24.77
579.808	24.26
580.259	24.69
580.71	24.69
581.161	25.53
581.612	24.24
582.064	25.5
582.515	24.41
582.965	25.13
583.416	24.25
583.867	24.02
584.318	25.12
584.769	23.53
585.22	25
585.671	24.69
586.122	24.58
586.572	24.49
587.023	25.16
587.474	25.24
587.924	25.11
588.375	26.75
588.826	25.27
589.276	24.78
589.727	25.18
590.177	24.66
590.628	24.92
591.078	23.9
591.529	25.46
591.979	26.62
592.429	24.6
592.88	25.2
593.33	24.22
593.78	23.66
594.231	24.87
594.681	24.92
595.131	25.37
595.581	24.57
596.031	24.36
596.481	24.68
596.932	25.43
597.382	25.32
597.832	23.31
598.282	25.38
598.732	23.93
599.182	25.08
599.632	25.41
600.081	24.77
600.531	24.5
600.981	24.62
601.431	24.42
601.881	26.41
602.33	24.52
602.78	25.16
603.23	25.58
603.679	25.03
604.129	25.23
604.579	24.88
605.028	24.39
605.478	24.26
605.927	25.22
606.377	24.62
606.826	25.28
607.276	25.04
607.725	25.83
608.175	25.69
608.624	24.94
609.073	25.07
609.522	24.8
609.972	25.36
610.421	23.95
610.87	24.78
611.319	24.63
611.768	26.49
612.218	24.72
612.667	24.98
613.116	26.23
613.565	24.97
614.014	24.85
614.463	26.28
614.912	24.36
615.361	25.79
615.81	24.53
616.258	25.14
616.707	25.37
617.156	24.08
617.605	24.21
618.054	25.2
618.502	24.76
618.951	24.24
619.4	25.61
619.848	24.61
620.297	24.29
620.745	25.24
621.194	25.63
621.642	25.41
622.091	24.46
622.539	25.93
622.988	25.72
623.436	25.76
623.885	25.07
624.333	25.3
624.781	24.36
625.23	24.68
625.678	24.19
626.126	25.4
626.574	24.83
627.022	23.42
627.471	24.98
627.919	24.35
628.367	25.35
628.815	25.43
629.263	25.44
629.711	25.16
630.159	24.05
630.607	24.95
631.055	24.2
631.503	25.12
631.95	24.93
632.398	24.86
632.846	25.62
633.294	24.83
633.742	24.56
634.189	23.94
634.637	25.16
635.085	25.43
635.532	24.25
635.98	24.7
636.427	25.43
636.875	24.69
637.323	24.72
637.77	24.22
638.217	25.06
638.665	24.51
639.112	24.36
639.56	24.33
640.007	26
640.454	25.47
640.902	25.32
641.349	25.05
641.796	25.31
642.243	25.14
642.69	25.14
643.138	25.16
643.585	25.77
644.032	25.64
644.479	24.42
644.926	24.72
645.373	25.37
645.82	24.83
646.267	24.84
646.714	25.67
647.161	24.68
647.607	25.77
648.054	25.32
648.501	24.3
648.948	24.72
649.395	24.66
649.841	25.56
650.288	25.23
650.735	25.71
651.181	25.38
651.628	24.16
652.075	24.4
652.521	25.49
652.968	25.19
653.414	24.82
653.861	25.59
654.307	24.52
654.753	24.72
655.2	25.5
655.646	24.51
656.092	25.28
656.539	24.62
656.985	25.33
657.431	24.6
657.877	24.92
658.324	24.79
658.77	25.19
659.216	25.08
659.662	24.4
660.108	25.06
660.554	24.89
661	25.17
661.446	24.83
661.892	25.64
662.338	25.36
662.784	25.35
663.23	25.12
663.675	24.86
664.121	25.07
664.567	24.51
665.013	25.15
665.458	24.81
665.904	24.34
666.35	24.78
666.795	24.37
667.241	24.82
667.687	24.81
668.132	25.04
668.578	24.79
669.023	25.42
669.469	24.96
669.914	24.51
670.359	24.84
670.805	26.04
671.25	24.56
671.695	25.55
672.141	25.01
672.586	25.65
673.031	25.17
673.476	26.21
673.922	25.74
674.367	24.94
674.812	24.8
675.257	25.91
675.702	25.24
676.147	24.17
676.592	25.41
677.037	24.4
677.482	25.5
677.927	24.35
678.372	25.44
678.817	25.26
679.261	25.33
679.706	24.76
680.151	24.6
680.596	25.08
681.04	23.97
681.485	25.68
681.93	24.69
682.374	25.04
682.819	24.92
683.264	24.73
683.708	24.94
684.153	25.81
684.597	25.06
685.042	25.7
685.486	25.07
685.93	25.08
686.375	24.71
686.819	24.78
687.263	25.24
687.708	24.66
688.152	25.75
688.596	25.65
689.04	25.14
689.485	25.81
689.929	24.87
690.373	25.26
690.817	25.11
691.261	24.88
691.705	26.07
692.149	25.31
692.593	24.98
693.037	25.7
693.481	25.51
693.925	25.45
694.369	25.46
694.812	24.89
695.256	25.19
695.7	25.42
696.144	25.75
696.587	25.09
697.031	25.14
697.475	24.86
697.918	25.45
698.362	24.67
698.806	25.37
699.249	25.28
699.693	25.01
700.136	25.77
700.58	24.78
701.023	24.62
701.466	25.93
701.91	24.8
702.353	25.89
702.796	25.21
703.24	25.47
703.683	25.76
704.126	25.47
704.569	25.19
705.013	25.42
705.456	25.7
705.899	25.72
706.342	25.2
706.785	25.29
707.228	25.77
707.671	25.34
708.114	24.8
708.557	25.04
709	25.47
709.443	25.58
709.886	25.33
710.328	24.88
710.771	25.19
711.214	25.35
711.657	25.63
712.099	24.69
712.542	24.94
712.985	25.89
713.427	25.06
713.87	25.33
714.313	25.58
714.755	24.94
715.198	26.1
715.64	25.4
716.083	25.7
716.525	25.39
716.967	25.32
717.41	25.5
717.852	25.8
718.295	25.61
718.737	25.53
719.179	25.77
719.621	25.32
720.063	25.19
720.506	25.42
720.948	25.46
721.39	25.33
721.832	25.07
722.274	25.67
722.716	25.43
723.158	26.27
723.6	25.47
724.042	25.26
724.484	25.32
724.926	26.02
725.368	25.47
725.81	25.05
726.251	25.67
726.693	25.82
727.135	25.62
727.577	25.14
728.018	26.24
728.46	25.55
728.902	25.16
729.343	26.3
729.785	25.3
730.226	25.38
730.668	25.47
731.109	25.17
731.551	25.75
731.992	26.21
732.434	25.54
732.875	25.32
733.316	25.56
733.758	25.41
734.199	26.03
734.64	24.94
735.081	25.75
735.523	25.54
735.964	25.3
736.405	25.36
736.846	26.01
737.287	25.02
737.728	25.24
738.169	25.55
738.61	25.86
739.051	25.74
739.492	25.24
739.933	25.54
740.374	25.88
740.815	25.52
741.256	25.88
741.696	25.43
742.137	25.38
742.578	25.79
743.019	25.59
743.459	25.13
743.9	25.33
744.341	25.82
744.781	25.46
745.222	25.43
745.662	25.07
746.103	26.22
746.543	25.91
746.984	25.25
747.424	24.98
747.865	25.58
748.305	25.46
748.745	25.42
749.186	25.01
749.626	25.23
750.066	25.46
750.506	26.35
750.947	25.73
751.387	25.63
751.827	25.9
752.267	25.99
752.707	25.73
753.147	25.69
753.587	25.38
754.027	25.93
754.467	25.73
754.907	25.7
755.347	25.91
755.787	25.37
756.227	26.06
756.667	26.4
757.107	25.29
757.546	26.58
757.986	26.01
758.426	25.9
758.865	26.12
759.305	25.64
759.745	25.75
760.184	26.15
760.624	25.78
761.063	26.04
761.503	26.04
761.943	25.76
762.382	25.51
762.821	25.69
763.261	26.41
763.7	25.8
764.14	25.21
764.579	25.96
765.018	25.99
765.457	25.87
765.897	25.66
766.336	25.88
766.775	26.38
767.214	26.05
767.653	25.97
768.092	25.54
768.531	26.69
768.97	25.47
769.409	25.94
769.848	26.46
770.287	25.68
770.726	26.44
771.165	25.47
771.604	25.82
772.043	26.34
772.482	26.24
772.92	25.74
773.359	26.16
773.798	25.94
774.237	26.35
774.675	26.4
775.114	26.4
775.553	26.6
775.991	25.38
776.43	25.6
776.868	26.28
777.307	25.31
777.745	25.8
778.184	26.56
778.622	25.55
779.06	25.86
779.499	25.89
779.937	26.23
780.375	25.71
780.814	26.8
781.252	26.09
781.69	25.98
782.128	25.91
782.566	25.61
783.004	26.12
783.443	26.67
783.881	26.36
784.319	26.12
784.757	26.41
785.195	25.89
785.633	26.54
786.071	25.65
786.508	26
786.946	26.16
787.384	26.06
787.822	25.91
788.26	25.84
788.697	26.07
789.135	26.28
789.573	25.96
790.011	26.18
790.448	26.77
790.886	26.69
791.323	26.53
791.761	26.06
792.198	25.6
792.636	26.1
793.073	26.4
793.511	25.99
793.948	26.24
794.386	26.29
794.823	26.51
795.26	26.85
795.698	26.11
796.135	26.45
796.572	26.56
797.009	26.35
797.446	26.25
797.884	26.17
798.321	26.27
798.758	26.9
799.195	26.31
799.632	26.45
800.069	26.75
800.506	26.45
800.943	26.87
801.38	26.56
801.817	26.15
802.254	26.37
802.69	26.46
803.127	26.46
803.564	26.52
804.001	26.82
804.438	26.5
804.874	26.24
805.311	26.64
805.748	26.56
806.184	26.23
806.621	26.7
807.057	26.87
807.494	26.31
807.93	26.54
808.367	26.37
808.803	26.14
809.24	26.9
809.676	26.85
810.112	26.95
810.549	26.7
810.985	26.32
811.421	26.8
811.857	26.51
812.294	26.87
812.73	26.02
813.166	27.24
813.602	26.61
814.038	26.51
814.474	26.42
814.91	26.46
815.346	26.41
815.782	26.2
816.218	26.43
816.654	26.15
817.09	26.44
817.526	26.57
817.962	26.34
818.398	26.52
818.833	26.57
819.269	26.59
819.705	26.72
820.141	26.41
820.576	26.97
821.012	26.92
821.447	27.15
821.883	26.64
822.319	26.98
822.754	26.88
823.19	26.8
823.625	26.03
824.061	26.95
824.496	27.19
824.931	26.73
825.367	27.23
825.802	26.67
826.237	26.77
826.673	27.29
827.108	26.9
827.543	27.33
827.978	27.11
828.413	26.9
828.849	26.92
829.284	27.2
829.719	26.64
830.154	26.73
830.589	27.4
831.024	26.94
831.459	26.4
831.894	27.53
832.329	27.19
832.763	26.57
833.198	26.78
833.633	26.81
834.068	27.2
834.503	26.87
834.937	27.42
835.372	27.66
835.807	27.33
836.241	26.56
836.676	27.19
837.111	26.87
837.545	26.87
837.98	27.41
838.414	26.98
838.849	27.04
839.283	27.04
839.717	27.27
840.152	27.43
840.586	26.99
841.021	27.03
841.455	27.44
841.889	27.14
842.323	26.93
842.758	27.73
843.192	26.92
843.626	27.23
844.06	26.89
844.494	27.32
844.928	27.4
845.362	27.5
845.796	27.21
846.23	27.55
846.664	27.62
847.098	27.65
847.532	27.14
847.966	27.25
848.4	27.33
848.834	27.47
849.267	27.06
849.701	27.02
850.135	27.62
850.569	27.55
851.002	27.59
851.436	27.47
851.87	27.2
852.303	27.43
852.737	27.82
853.17	27.54
853.604	27.73
854.037	27.67
854.471	27.49
854.904	27.93
855.337	27.23
855.771	27.53
856.204	27.85
856.637	27.73
857.071	27.78
857.504	27.42
857.937	28.07
858.37	27.27
858.804	27.82
859.237	28.16
859.67	28.11
860.103	27.61
860.536	28.04
860.969	27.58
861.402	27.58
861.835	27.64
862.268	27.77
862.701	27.73
863.134	27.46
863.566	27.5
863.999	27.77
864.432	28.3
864.865	27.74
865.298	27.48
865.73	27.69
866.163	28.09
866.596	27.95
867.028	28.47
867.461	28.14
867.893	28.18
868.326	27.65
868.758	27.41
869.191	27.87
869.623	27.65
870.056	27.96
870.488	27.71
870.92	27.17
871.353	27.83
871.785	27.8
872.217	27.83
872.65	28.08
873.082	28.36
873.514	28.23
873.946	27.89
874.378	27.78
874.81	28.1
875.243	28.26
875.675	28.22
876.107	27.95
876.539	27.82
876.971	28.19
877.403	27.79
877.834	28.23
878.266	28
878.698	28.66
879.13	28.61
879.562	28.06
879.994	28.13
880.425	28.18
880.857	28.11
881.289	28.42
881.72	28.14
882.152	28.05
882.584	28.24
883.015	28.25
883.447	28.2
883.878	28.18
884.31	28.23
884.741	28.26
885.173	28.55
885.604	28.26
886.035	28.57
886.467	28.5
886.898	28.85
887.329	28.13
887.76	28.27
888.192	28.58
888.623	28.6
889.054	28.44
889.485	28.4
889.916	28.24
890.347	28.37
890.778	28.63
891.209	28.23
891.64	28.15
892.071	28.6
892.502	28.38
892.933	28.34
893.364	28.43
893.795	28.67
894.226	28.42
894.657	28.01
895.087	28.43
895.518	28.3
895.949	28.75
896.38	28.31
896.81	28.33
897.241	28.55
897.671	28.69
898.102	28.2
898.533	28.45
898.963	28.73
899.394	28.49
899.824	28.64
900.254	28.82
900.685	28.47
901.115	28.4
901.546	28.39
901.976	28.81
902.406	28.76
902.836	28.36
903.267	28.74
903.697	28.69
904.127	28.84
904.557	28.65
904.987	28.56
905.417	29.19
905.847	28.55
906.277	28.79
906.707	28.68
907.137	28.84
907.567	28.56
907.997	28.65
908.427	28.69
908.857	28.62
909.287	28.92
909.717	28.89
910.146	28.9
910.576	28.73
911.006	28.48
911.436	28.6
911.865	29.06
912.295	28.48
912.724	29.01
913.154	29.01
913.584	28.66
914.013	29.05
914.443	28.82
914.872	28.6
915.302	28.88
915.731	28.33
916.16	29.05
916.59	29.03
917.019	28.8
917.448	29.03
917.878	29.12
918.307	29.19
918.736	29.08
919.165	28.75
919.594	28.74
920.023	29.39
920.452	28.89
920.882	28.8
921.311	29.03
921.74	29.07
922.169	28.87
922.597	29.04
923.026	28.88
923.455	28.78
923.884	29.38
924.313	29.29
924.742	28.92
925.171	28.89
925.599	28.91
926.028	28.76
926.457	29.43
926.885	29.03
927.314	29.42
927.743	28.92
928.171	29.42
928.6	29.25
929.028	29.29
929.457	29.16
929.885	29.12
930.314	29.18
930.742	29.57
931.17	29.64
931.599	29.22
932.027	29.26
932.455	29.44
932.884	29.54
933.312	29.33
933.74	29.26
934.168	29.54
934.596	29.57
935.025	29.29
935.453	29.2
935.881	29.42
936.309	29
936.737	29.11
937.165	29.33
937.593	29.35
938.021	29.43
938.449	29.7
938.876	29.33
939.304	30.39
939.732	29.13
940.16	29.05
940.588	29.37
941.015	29.64
941.443	29.44
941.871	29.29
942.298	29.36
942.726	29.48
943.154	28.87
943.581	29.6
944.009	29.97
944.436	29.8
944.864	29.89
945.291	30.14
945.718	29.46
946.146	29.31
946.573	29.4
947.001	29.73
947.428	29.48
947.855	30.03
948.282	29.38
948.71	29.57
949.137	29.76
949.564	29.74
949.991	30.07
950.418	29.56
950.845	29.46
951.272	29.61
951.699	29.37
952.126	29.76
952.553	29.81
952.98	29.44
953.407	29.64
953.834	29.48
954.261	29.63
954.688	29.75
955.114	29.49
955.541	29.56
955.968	29.38
956.395	29.53
956.821	29.92
957.248	29.95
957.674	29.49
958.101	30.23
958.528	29.24
958.954	29.8
959.381	29.5
959.807	29.98
960.234	29.62
960.66	29.57
961.086	29.93
961.513	30.1
961.939	29.45
962.365	29.88
962.792	29.5
963.218	29.48
963.644	29.77
964.07	29.8
964.496	30.03
964.923	29.81
965.349	30.41
965.775	30.01
966.201	30.11
966.627	29.88
967.053	29.93
967.479	30.17
967.905	29.78
968.331	30.11
968.756	29.85
969.182	30.02
969.608	30.18
970.034	29.59
970.46	29.74
970.885	29.98
971.311	29.77
971.737	30.08
972.162	29.83
972.588	30.18
973.014	29.96
973.439	29.95
973.865	29.96
974.29	30.15
974.716	29.9
975.141	30.26
975.567	29.97
975.992	29.94
976.417	30.05
976.843	30.49
977.268	30.31
977.693	30.43
978.119	30.08
978.544	30.25
978.969	30.46
979.394	30.04
979.819	30.45
980.244	30.55
980.669	30.4
981.095	29.96
981.52	30.71
981.945	30.33
982.369	30.55
982.794	30.87
983.219	30.45
983.644	30.35
984.069	30.49
984.494	30.59
984.919	30.41
985.343	30.61
985.768	30.59
986.193	30.49
986.618	30.25
987.042	30.66
987.467	30.21
987.891	30.61
988.316	30.63
988.741	30.69
989.165	30.51
989.59	30.45
990.014	30.56
990.438	30.54
990.863	30.63
991.287	30.68
991.712	30.72
992.136	30.51
992.56	30.58
992.984	30.52
993.409	30.65
993.833	30.48
994.257	30.81
994.681	30.76
995.105	30.73
995.529	30.55
995.953	30.41
996.377	30.56
996.801	31.35
997.225	30.67
997.649	30.68
998.073	30.9
998.497	30.77
998.921	30.9
999.345	30.76
999.769	30.52
1000.192	30.85
1000.616	30.72
1001.04	31.11
1001.464	31.14
1001.887	30.99
1002.311	30.81
1002.734	30.62
1003.158	31.14
1003.582	30.73
1004.005	30.9
1004.429	30.82
1004.852	30.95
1005.275	31.24
1005.699	30.97
1006.122	31.26
1006.546	30.95
1006.969	31.26
1007.392	30.97
1007.815	31.14
1008.239	31.05
1008.662	30.98
1009.085	31.24
1009.508	30.82
1009.931	30.88
1010.354	30.99
1010.778	31.1
1011.201	31.43
1011.624	31.14
1012.047	31.23
1012.469	31.26
1012.892	30.78
1013.315	31.02
1013.738	30.85
1014.161	31.2
1014.584	31.25
1015.007	31.44
1015.429	30.97
1015.852	31.19
1016.275	31.41
1016.697	31.23
1017.12	31.07
1017.543	31.64
1017.965	31.08
1018.388	31.24
1018.81	31.26
1019.233	31.39
1019.655	31.48
1020.078	31.3
1020.5	31.28
1020.922	31.39
1021.345	31.36
1021.767	31.23
1022.189	31.18
1022.612	31.68
1023.034	31.8
1023.456	30.65
1023.878	31.32
1024.301	31.43
1024.723	31.38
1025.145	31.43
1025.567	31.06
1025.989	31.69
1026.411	31.59
1026.833	31.5
1027.255	31.44
1027.677	31.52
1028.099	31.54
1028.52	31.92
1028.942	31.53
1029.364	31.06
1029.786	31.57
1030.208	32.19
1030.629	31.13
1031.051	31.76
1031.473	31.71
1031.894	31.81
1032.316	31.84
1032.738	31.93
1033.159	31.28
1033.581	31.8
1034.002	31.78
1034.424	31.5
1034.845	31.69
1035.267	31.7
1035.688	32.12
1036.109	31.49
1036.531	31.71
1036.952	31.9
1037.373	31.55
1037.794	32.26
1038.216	31.78
1038.637	32.02
1039.058	31.35
1039.479	31.73
1039.9	31.71
1040.321	31.72
1040.742	31.61
1041.163	32
1041.584	31.48
1042.005	31.25
1042.426	31.7
1042.847	31.63
1043.268	31.77
1043.689	32.15
1044.11	31.89
1044.53	32.28
1044.951	31.84
1045.372	32.08
1045.793	32.73
1046.213	32.13
1046.634	32.06
1047.055	31.7
1047.475	32.32
1047.896	31.88
1048.316	31.74
1048.737	31.23
1049.157	31.85
1049.578	32.18
1049.998	32.03
1050.419	32.58
1050.839	31.92
1051.259	32.1
1051.68	32.09
1052.1	32.2
1052.52	31.19
1052.94	31.92
1053.361	32.08
1053.781	31.98
1054.201	32.71
1054.621	31.97
1055.041	32.14
1055.461	32.76
1055.881	31.55
1056.301	31.88
1056.721	31.66
1057.141	32.66
1057.561	32.87
1057.981	32.27
1058.401	31.9
1058.82	32.35
1059.24	32.16
1059.66	31.62
1060.08	32.31
1060.499	31
1060.919	33.01
1061.339	32.63
1061.758	32.6
1062.178	32.32
1062.598	31.8
1063.017	32.53
1063.437	31.93
1063.856	32.68
1064.276	31.71
1064.695	32.27
1065.114	33.1
1065.534	32.02
1065.953	32.23
1066.372	32.24
1066.792	32.44
1067.211	32.44
1067.63	32.57
1068.049	32.56
1068.469	31.87
1068.888	32.16
1069.307	31.73
1069.726	32.9
1070.145	33.25
1070.564	31.96
1070.983	32.13
1071.402	32.57
1071.821	32.12
1072.24	32.73
1072.659	32.5
1073.078	31.77
1073.496	32.34
1073.915	32.03
1074.334	32.18
1074.753	32.22
1075.171	32.87
1075.59	32.3
1076.009	32.97
1076.427	31.94
1076.846	32.04
1077.265	31.77
1077.683	31.78
1078.102	32.2
1078.52	31.42
1078.939	32.41
1079.357	32.23
1079.776	32.88
1080.194	31.88
1080.612	32.44
1081.031	32.63
1081.449	32.6
1081.867	33.44
1082.285	32.73
1082.704	32.89
1083.122	32.03
1083.54	32.07
1083.958	33.4
1084.376	32.91
1084.794	31.91
1085.212	33.18
1085.63	32.63
1086.048	33.04
1086.466	32.11
1086.884	32.85
1087.302	31.52
1087.72	33.01
1088.138	33.13
1088.555	32.92
1088.973	33.83
1089.391	33.48
1089.809	32.53
1090.226	33.24
1090.644	33.52
1091.062	33.38
1091.479	31.92
1091.897	32.19
1092.314	32.12
1092.732	33.92
1093.15	32.44
1093.567	33.73
1093.984	33.07
1094.402	33.91
1094.819	34.42
1095.237	32.22
1095.654	32.4
1096.071	32.17
1096.488	31.76
1096.906	32.23
1097.323	31.93
1097.74	31.8
1098.157	31.81
1098.574	32.15
1098.991	31.73
1099.409	33.55
1099.826	33.04
1100.243	32.2
1100.66	32.75
1101.077	32.44
1101.494	31.93
1101.91	32.12
1102.327	31.95
1102.744	32.17
1103.161	31.72
1103.578	31.62
1103.994	32.28
1104.411	32.66
1104.828	31.57
1105.245	34.49
1105.661	32.96
1106.078	33.41
1106.494	33.56
1106.911	32.63
1107.328	33.68
1107.744	35.41
1108.161	32.56
1108.577	31.41
1108.993	32.41
1109.41	30.32
1109.826	32.33
1110.242	32.95
1110.659	30.05
1111.075	33.14
1111.491	32.43
1111.908	31.51
1112.324	32.47
1112.74	42.63
1113.156	29.81
1113.572	34.27
1113.988	34.1
1114.404	29.44
1114.82	31.94
1115.236	31.52
1115.652	31.77
1116.068	26.24
1116.484	32.35
1116.9	28.27
1117.316	37.05
1117.732	95.83
1118.147	39.58
1118.563	36.67
1118.979	116.67
