Data from JCR0009_White2_Reflection_00003.txt Node
Date: Wed Jul 22 16:41:38 ACST 2020
User: Stacey Dix
Spectrometer: MAYP113282
Scans to average: 1
Trigger mode: 0
Integration Time (sec): 1.000000E-1
Electric dark correction enabled: true
Boxcar width: 0
XAxis mode: Wavelengths
Number of Pixels in Spectrum: 2068
>>>>>Begin Spectral Data<<<<<
198.791	-532
199.266	342.11
199.74	-47.83
200.215	-4
200.69	85.81
201.164	123.57
201.639	85.02
202.114	91
202.588	72.24
203.063	75.1
203.537	92.33
204.012	74.29
204.486	81.49
204.961	81.49
205.435	76.56
205.909	97.35
206.384	98.55
206.858	85.77
207.332	105.48
207.807	110.7
208.281	89.47
208.755	101.97
209.229	132.6
209.703	100.51
210.177	73.63
210.651	82.08
211.126	78.1
211.6	73.16
212.074	71.92
212.548	80.71
213.021	67.77
213.495	95.62
213.969	79.88
214.443	69.41
214.917	81.16
215.391	94.3
215.864	52.89
216.338	80.91
216.812	49.72
217.286	47.72
217.759	73.17
218.233	77.85
218.706	51.77
219.18	46.09
219.654	65.39
220.127	65.55
220.6	79.48
221.074	48.46
221.547	48.44
222.021	60.21
222.494	55.41
222.967	56.34
223.441	59.35
223.914	62.37
224.387	33.64
224.86	43.24
225.334	44.45
225.807	45.87
226.28	38.64
226.753	48.46
227.226	36.74
227.699	36.91
228.172	38.38
228.645	34.86
229.118	32.5
229.591	40.48
230.064	35.78
230.537	31.07
231.01	36.01
231.482	32.88
231.955	29.96
232.428	30.03
232.901	32.01
233.373	33.31
233.846	26.22
234.319	24.95
234.791	26.93
235.264	29.68
235.736	27.02
236.209	26.54
236.681	26.12
237.154	27.55
237.626	25.53
238.099	23.24
238.571	25.7
239.044	25.28
239.516	23.96
239.988	24.16
240.46	21.92
240.933	23.65
241.405	26.08
241.877	24.38
242.349	23.27
242.821	23.63
243.293	21.23
243.765	23.53
244.237	21.76
244.71	22.07
245.181	24.18
245.653	21.93
246.125	23.29
246.597	23.49
247.069	21.98
247.541	23.98
248.013	22.23
248.485	23.59
248.956	22.57
249.428	21.14
249.9	20.94
250.371	21.27
250.843	20.14
251.315	21.05
251.786	19.96
252.258	16.75
252.729	18.41
253.201	20.04
253.672	18.94
254.144	18.4
254.615	19.58
255.086	17.95
255.558	18.24
256.029	17.83
256.5	18.75
256.972	17.49
257.443	17.84
257.914	19
258.385	19.52
258.856	17.42
259.327	16.27
259.799	18.17
260.27	17.91
260.741	19.19
261.212	17.54
261.683	18.32
262.154	17.32
262.624	17.8
263.095	17.82
263.566	18.24
264.037	17.68
264.508	16.54
264.979	17.54
265.449	18.02
265.92	16.81
266.391	17.28
266.861	17.31
267.332	17.85
267.803	17.32
268.273	18.81
268.744	16.97
269.214	16.99
269.685	17.52
270.155	17.55
270.626	17.7
271.096	18.3
271.566	19.02
272.037	16.6
272.507	18.47
272.977	17.82
273.448	16.96
273.918	19.08
274.388	17.05
274.858	19.24
275.328	19.03
275.798	16.12
276.268	18.04
276.738	18.31
277.208	17.69
277.678	17.59
278.148	19.23
278.618	16.87
279.088	15.5
279.558	18.49
280.028	19.07
280.498	18.1
280.968	17.7
281.437	16.98
281.907	15.28
282.377	17.77
282.847	17.7
283.316	15.31
283.786	17.21
284.255	17.06
284.725	17.31
285.194	17.47
285.664	15.67
286.133	14.64
286.603	16.28
287.072	16.13
287.542	16.38
288.011	16.58
288.48	15.86
288.95	15.6
289.419	16.38
289.888	17.3
290.357	16.31
290.827	16.65
291.296	14.47
291.765	15.24
292.234	16.85
292.703	17.16
293.172	16.48
293.641	15.54
294.11	17.13
294.579	15.63
295.048	16.33
295.517	17.61
295.986	17.62
296.455	16.71
296.923	16.77
297.392	19.61
297.861	17.63
298.33	16.44
298.798	16.82
299.267	18.48
299.736	16.16
300.204	17.59
300.673	16.38
301.141	16.9
301.61	17.41
302.079	17.8
302.547	17.01
303.015	18.72
303.484	18.43
303.952	17.14
304.421	17.48
304.889	15.93
305.357	18.23
305.825	16.59
306.294	18.14
306.762	17.6
307.23	17.52
307.698	17.82
308.166	16.78
308.634	16.99
309.103	17.07
309.571	18.27
310.039	18.58
310.507	17.37
310.975	18.95
311.442	17.26
311.91	17.98
312.378	17.64
312.846	16.46
313.314	16.75
313.782	18.39
314.249	17.22
314.717	18.26
315.185	19.9
315.652	17.31
316.12	18.75
316.588	18.13
317.055	16.94
317.523	18.45
317.99	18
318.458	17.41
318.925	17.21
319.393	17.38
319.86	18.67
320.328	17.05
320.795	17.85
321.262	20.63
321.73	17.94
322.197	18.64
322.664	18
323.131	19.13
323.598	18.88
324.066	18.78
324.533	18.59
325	18.64
325.467	20.02
325.934	19.87
326.401	19.64
326.868	21.84
327.335	21.27
327.802	20.25
328.269	22.73
328.735	24.18
329.202	21.78
329.669	21.97
330.136	23.24
330.603	24.96
331.069	22.99
331.536	23.07
332.003	23.93
332.469	26
332.936	24.7
333.402	24.46
333.869	24.6
334.336	25.37
334.802	25.83
335.268	24.87
335.735	24.66
336.201	26.23
336.668	25
337.134	26.49
337.6	26.54
338.067	26.17
338.533	24.86
338.999	24.44
339.465	26.09
339.931	26.27
340.398	26.78
340.864	25.36
341.33	26.02
341.796	26.54
342.262	25.75
342.728	26.13
343.194	24.87
343.66	26.02
344.126	23.5
344.592	24.53
345.057	26
345.523	24.7
345.989	26.86
346.455	25.17
346.921	25.57
347.386	25.59
347.852	25.55
348.318	26.06
348.783	23.37
349.249	22.29
349.714	26.06
350.18	25.93
350.645	24.19
351.111	25.87
351.576	23.5
352.042	25.46
352.507	24.08
352.973	25.18
353.438	23.01
353.903	25.01
354.369	24.02
354.834	26.14
355.299	25.79
355.764	25.66
356.229	23.31
356.695	24.74
357.16	23.32
357.625	23.42
358.09	25.03
358.555	25.51
359.02	25.45
359.485	23.32
359.95	23.31
360.415	23.8
360.879	25.1
361.344	23.08
361.809	25.54
362.274	23.75
362.739	24.04
363.203	25.53
363.668	26.64
364.133	26.33
364.597	25.1
365.062	23.78
365.527	25.13
365.991	25.64
366.456	25.52
366.92	25.03
367.385	23.57
367.849	25.51
368.314	25.94
368.778	22.94
369.242	24.09
369.707	24.25
370.171	23.6
370.635	24.61
371.1	25
371.564	26.04
372.028	24.49
372.492	23.15
372.956	22.74
373.42	23.79
373.884	24.21
374.348	21.72
374.812	23.15
375.276	24.25
375.74	24.3
376.204	24.82
376.668	23.05
377.132	23.02
377.596	24.37
378.06	23.71
378.524	24.02
378.987	22.04
379.451	23.93
379.915	22.44
380.378	23.41
380.842	23.39
381.306	23.72
381.769	21.76
382.233	22.57
382.696	22.45
383.16	23.94
383.623	21.96
384.087	23.39
384.55	23.15
385.014	20.81
385.477	22.22
385.94	24.83
386.404	21.5
386.867	25.1
387.33	21.25
387.793	22.83
388.256	22
388.72	21.95
389.183	21.96
389.646	23.38
390.109	22.49
390.572	21.9
391.035	22.52
391.498	19.94
391.961	21.56
392.424	21.58
392.887	20.68
393.35	21.63
393.812	22.36
394.275	20.11
394.738	20.53
395.201	21.79
395.664	20.97
396.126	22.5
396.589	20.56
397.052	19.81
397.514	21.84
397.977	21.01
398.439	20.46
398.902	19.87
399.364	21.42
399.827	19.39
400.289	21.03
400.752	19.97
401.214	20.35
401.676	19.81
402.139	20.37
402.601	18.66
403.063	20.72
403.525	18.9
403.988	21.08
404.45	21.52
404.912	18.87
405.374	19.98
405.836	19.61
406.298	19.72
406.76	18.62
407.222	21.34
407.684	18.52
408.146	19.02
408.608	17.86
409.07	18.97
409.532	19.7
409.994	19.71
410.456	21.55
410.917	19.43
411.379	19.78
411.841	17.61
412.303	18.88
412.764	19.68
413.226	17.5
413.687	18.17
414.149	18.42
414.611	18.65
415.072	19
415.534	18.83
415.995	18.06
416.457	18.03
416.918	20.69
417.379	17.71
417.841	18.23
418.302	19.99
418.763	18.08
419.225	20.82
419.686	18.88
420.147	18.89
420.608	19.51
421.069	18.77
421.53	19.19
421.991	18.56
422.453	17.51
422.914	19.2
423.375	19.79
423.836	20.24
424.297	20.2
424.757	21.68
425.218	20.58
425.679	22.18
426.14	20.45
426.601	19.89
427.062	22.27
427.522	22.49
427.983	21.35
428.444	22.5
428.904	22.92
429.365	22.86
429.826	21.75
430.286	20.63
430.747	22.44
431.207	24.52
431.668	23.67
432.128	22.22
432.589	24.33
433.049	22.52
433.509	23.04
433.97	20.49
434.43	23.76
434.89	24.35
435.351	24.12
435.811	23.21
436.271	23.11
436.731	25.31
437.191	24.12
437.651	25.66
438.112	24.83
438.572	23.78
439.032	25.21
439.492	24.63
439.952	22.76
440.412	23.34
440.871	28.31
441.331	23.87
441.791	27.71
442.251	22.89
442.711	25.3
443.171	23.45
443.63	24.89
444.09	25.87
444.55	26.35
445.009	26.24
445.469	24.87
445.929	25.36
446.388	25.75
446.848	26.24
447.307	24.23
447.767	24.28
448.226	27.26
448.686	24.37
449.145	25.55
449.604	22.96
450.064	27.4
450.523	26.05
450.982	26.07
451.442	25.72
451.901	27.76
452.36	26.26
452.819	26.17
453.278	23.7
453.737	25.87
454.197	23.66
454.656	27.22
455.115	28.72
455.574	28.54
456.033	26.24
456.492	26.09
456.95	29.21
457.409	29.04
457.868	26.64
458.327	26.58
458.786	26.93
459.245	28.31
459.703	26.12
460.162	27.9
460.621	27.48
461.079	27.14
461.538	28.14
461.997	26.75
462.455	26
462.914	30.57
463.372	27
463.831	25.78
464.289	29.74
464.748	28.31
465.206	28.26
465.664	27.45
466.123	30.32
466.581	26.55
467.039	28.73
467.497	31.6
467.956	28.79
468.414	30.41
468.872	30.3
469.33	27.65
469.788	25.78
470.246	28.11
470.704	31.09
471.162	26.45
471.62	31.48
472.078	31.23
472.536	31.23
472.994	30.96
473.452	31.44
473.91	30.85
474.368	31.97
474.826	28.96
475.283	31.97
475.741	32.95
476.199	29.5
476.656	29.57
477.114	28.48
477.572	33.62
478.029	30.85
478.487	35.64
478.944	31.03
479.402	32.73
479.859	33.02
480.317	29.61
480.774	33.46
481.232	31.22
481.689	35.35
482.146	31.37
482.604	31.69
483.061	31.99
483.518	31.22
483.975	33.69
484.433	31.62
484.89	36.17
485.347	31.16
485.804	34.74
486.261	34.38
486.718	30.58
487.175	31.99
487.632	32.73
488.089	37.5
488.546	33.47
489.003	33.03
489.46	37.9
489.917	31.64
490.373	31.93
490.83	31.34
491.287	34.15
491.744	33.01
492.2	36.34
492.657	34.01
493.114	29.77
493.57	31.41
494.027	33.67
494.484	33.56
494.94	31.77
495.397	35.02
495.853	34.87
496.31	34.57
496.766	36.52
497.222	35.62
497.679	37.96
498.135	33.02
498.591	34.95
499.048	36.43
499.504	36.05
499.96	34.37
500.416	35.56
500.872	33.19
501.329	34.79
501.785	33.83
502.241	33.04
502.697	32.79
503.153	36.88
503.609	33.93
504.065	34.32
504.521	34.75
504.977	34.35
505.432	33.68
505.888	33.84
506.344	38.02
506.8	33.94
507.256	34
507.711	32.16
508.167	34.23
508.623	33.45
509.078	32.35
509.534	33.11
509.99	36.07
510.445	34.54
510.901	33.75
511.356	36.3
511.812	36.84
512.267	33.88
512.722	35.16
513.178	34.81
513.633	30.11
514.089	35.59
514.544	36.43
514.999	31.75
515.454	34.92
515.91	36.48
516.365	33.35
516.82	32.91
517.275	35.83
517.73	33.91
518.185	33.74
518.64	35.61
519.095	33.91
519.55	34.92
520.005	32.89
520.46	34.07
520.915	34.91
521.37	33.53
521.825	33.06
522.28	32.1
522.734	34.95
523.189	35.88
523.644	34.07
524.099	32.54
524.553	33.47
525.008	36.19
525.462	32.74
525.917	32.76
526.372	34.68
526.826	37.16
527.281	33.25
527.735	32.3
528.19	32.93
528.644	33.52
529.098	33.82
529.553	35.05
530.007	34.88
530.461	35.75
530.916	36.36
531.37	34.18
531.824	34.77
532.278	32.53
532.732	34.93
533.186	34.38
533.641	33
534.095	35.37
534.549	33.12
535.003	31.56
535.457	32.81
535.911	34.29
536.365	34.91
536.818	32.02
537.272	35.4
537.726	32.24
538.18	34.45
538.634	34.18
539.087	32.9
539.541	33.46
539.995	34.64
540.449	33.17
540.902	33.61
541.356	35.82
541.809	37.09
542.263	31.96
542.716	35.25
543.17	33.59
543.623	33.97
544.077	31.8
544.53	32.79
544.984	33.68
545.437	32.18
545.89	36.45
546.344	32.67
546.797	33.42
547.25	34.08
547.703	33.37
548.157	34.6
548.61	31.14
549.063	34.23
549.516	33.74
549.969	34.35
550.422	34.88
550.875	34.62
551.328	34.01
551.781	33.16
552.234	35.3
552.687	31.2
553.14	34.95
553.592	34.37
554.045	34.43
554.498	32.98
554.951	34.88
555.404	34.09
555.856	34.61
556.309	31.16
556.762	32.74
557.214	35.86
557.667	34.01
558.119	34.35
558.572	32.9
559.024	33.98
559.477	31.94
559.929	35.29
560.382	36.31
560.834	32.97
561.286	38.04
561.739	34.55
562.191	34.9
562.643	34.67
563.095	33.87
563.548	34.46
564	32.66
564.452	33.49
564.904	32.72
565.356	35.12
565.808	32.34
566.26	32.74
566.712	34.31
567.164	32.28
567.616	32.9
568.068	33.62
568.52	33.78
568.972	32.94
569.424	33.38
569.876	32.44
570.327	34.17
570.779	32.54
571.231	34.62
571.682	32.78
572.134	33.41
572.586	32.29
573.037	33.08
573.489	34.86
573.941	31.61
574.392	31.81
574.844	33.6
575.295	31.85
575.746	33.56
576.198	33.01
576.649	34.01
577.101	33.17
577.552	33.99
578.003	32.45
578.454	31.26
578.906	32.92
579.357	32.88
579.808	32.19
580.259	33.37
580.71	30.66
581.161	33.6
581.612	31.26
582.064	32.47
582.515	33.58
582.965	31.59
583.416	32.16
583.867	34.95
584.318	33.39
584.769	33.85
585.22	32.76
585.671	34.94
586.122	34.31
586.572	34.59
587.023	34.17
587.474	33.66
587.924	33.52
588.375	36.05
588.826	34.59
589.276	34.34
589.727	34.67
590.177	35.25
590.628	34.09
591.078	36.6
591.529	34.25
591.979	35.71
592.429	33.37
592.88	32.58
593.33	34.48
593.78	34.36
594.231	33.68
594.681	35.09
595.131	33.98
595.581	36.11
596.031	34.28
596.481	34.34
596.932	35.97
597.382	34.96
597.832	33.77
598.282	32.71
598.732	35.09
599.182	36.87
599.632	35.53
600.081	35.32
600.531	33.77
600.981	35.81
601.431	33.98
601.881	33.78
602.33	34.5
602.78	34.75
603.23	34.91
603.679	37.1
604.129	34.17
604.579	34.15
605.028	34.74
605.478	35.82
605.927	34.9
606.377	35.39
606.826	36.37
607.276	35.12
607.725	33.54
608.175	34.98
608.624	34.71
609.073	35.38
609.522	34.45
609.972	34.32
610.421	36.41
610.87	32.6
611.319	34.76
611.768	33.26
612.218	35.08
612.667	33.63
613.116	36.55
613.565	33.5
614.014	34.42
614.463	36.34
614.912	35.36
615.361	35.11
615.81	34.42
616.258	33.26
616.707	35.54
617.156	34.42
617.605	34.51
618.054	34.87
618.502	35.37
618.951	35.43
619.4	34.45
619.848	35.95
620.297	35.51
620.745	36.18
621.194	35.73
621.642	35.73
622.091	34.64
622.539	34.7
622.988	33.74
623.436	35.29
623.885	34.38
624.333	36.34
624.781	35.66
625.23	34.62
625.678	34.38
626.126	33.75
626.574	35.39
627.022	34.93
627.471	34.61
627.919	35.68
628.367	35.09
628.815	35.86
629.263	35.1
629.711	35
630.159	34.38
630.607	35.93
631.055	34.65
631.503	35.44
631.95	35.81
632.398	35.81
632.846	36.2
633.294	35.76
633.742	34.86
634.189	35.59
634.637	33.94
635.085	35.69
635.532	34.01
635.98	35.36
636.427	34.9
636.875	35.31
637.323	36.11
637.77	34.47
638.217	35.18
638.665	35.46
639.112	34.54
639.56	34.91
640.007	35.94
640.454	35.34
640.902	35.79
641.349	35.62
641.796	35.16
642.243	35.15
642.69	34.49
643.138	35.07
643.585	35.33
644.032	34.55
644.479	34.96
644.926	35.38
645.373	35.14
645.82	34.27
646.267	35.25
646.714	37.07
647.161	34.69
647.607	35.19
648.054	36.44
648.501	33.41
648.948	36.31
649.395	36.55
649.841	34.91
650.288	34.27
650.735	34.66
651.181	35.6
651.628	36.95
652.075	35.28
652.521	34.95
652.968	34.68
653.414	35.07
653.861	35.65
654.307	35.53
654.753	35.29
655.2	34.57
655.646	36.69
656.092	36.17
656.539	36.55
656.985	35.51
657.431	35.15
657.877	35.6
658.324	36.46
658.77	35.22
659.216	34.76
659.662	35.76
660.108	35.43
660.554	35.63
661	36.06
661.446	36.22
661.892	36.66
662.338	35.32
662.784	35.44
663.23	35.16
663.675	35.32
664.121	36.32
664.567	36.31
665.013	35.54
665.458	35.01
665.904	35.83
666.35	35.58
666.795	34.72
667.241	36.11
667.687	35.34
668.132	34.75
668.578	35.68
669.023	37.59
669.469	37.07
669.914	36.33
670.359	35.81
670.805	35.87
671.25	35.09
671.695	35.89
672.141	36.66
672.586	35.17
673.031	36.38
673.476	35.43
673.922	35.73
674.367	35.49
674.812	35.06
675.257	35.3
675.702	36.2
676.147	35.99
676.592	34.9
677.037	35.19
677.482	34.76
677.927	35.36
678.372	35.24
678.817	35.32
679.261	36.28
679.706	36.3
680.151	34.65
680.596	35.1
681.04	36.5
681.485	36.42
681.93	36.08
682.374	35.72
682.819	35.15
683.264	36.23
683.708	35.72
684.153	36.13
684.597	35.52
685.042	35.37
685.486	35.82
685.93	35.48
686.375	35.79
686.819	34.92
687.263	35.09
687.708	35.51
688.152	35.62
688.596	36.41
689.04	35.86
689.485	36.71
689.929	36.03
690.373	35.43
690.817	34.78
691.261	35.76
691.705	35.81
692.149	36.64
692.593	35.18
693.037	34.88
693.481	36.13
693.925	35.48
694.369	36.41
694.812	35.84
695.256	36.29
695.7	35.72
696.144	36.45
696.587	35.68
697.031	36.47
697.475	34.98
697.918	36.53
698.362	35.78
698.806	35.84
699.249	35.87
699.693	36.24
700.136	35.13
700.58	35.64
701.023	36.82
701.466	35.6
701.91	36.51
702.353	36.45
702.796	35.95
703.24	35.64
703.683	36.04
704.126	36.06
704.569	35.76
705.013	36.08
705.456	35.5
705.899	36.71
706.342	35.89
706.785	36.23
707.228	36.41
707.671	36.22
708.114	37.41
708.557	35.92
709	36.95
709.443	37.09
709.886	37.01
710.328	35.88
710.771	35.88
711.214	35.87
711.657	36.16
712.099	36.59
712.542	36.09
712.985	35.45
713.427	35.02
713.87	35.09
714.313	35.69
714.755	34.83
715.198	35.82
715.64	36.99
716.083	37.82
716.525	34.89
716.967	36.07
717.41	35.94
717.852	35.34
718.295	37.31
718.737	36.91
719.179	37.45
719.621	35.8
720.063	37.48
720.506	36.24
720.948	36.64
721.39	35.84
721.832	37.42
722.274	36.06
722.716	36.09
723.158	35.96
723.6	36.82
724.042	36.43
724.484	36.24
724.926	36.05
725.368	36
725.81	36.14
726.251	36.13
726.693	36.72
727.135	36.66
727.577	36.45
728.018	36.46
728.46	35.35
728.902	35.88
729.343	36.53
729.785	36.53
730.226	36.81
730.668	37.11
731.109	36.53
731.551	35.36
731.992	36.34
732.434	36.71
732.875	37.21
733.316	36.86
733.758	36.71
734.199	36.45
734.64	36.26
735.081	37.08
735.523	36.88
735.964	36.74
736.405	36.72
736.846	35.97
737.287	36.14
737.728	35.63
738.169	37.48
738.61	37.02
739.051	36.24
739.492	36.88
739.933	35.61
740.374	36.56
740.815	36.64
741.256	36.58
741.696	36.7
742.137	37.47
742.578	37.02
743.019	36.31
743.459	37.16
743.9	36.24
744.341	36.58
744.781	35.82
745.222	36.18
745.662	36.99
746.103	36.14
746.543	36.68
746.984	36.25
747.424	36.84
747.865	36.65
748.305	36.3
748.745	36.95
749.186	36.8
749.626	36.55
750.066	36.83
750.506	36.58
750.947	36.99
751.387	37.33
751.827	36.76
752.267	36.78
752.707	37.17
753.147	36.34
753.587	36.82
754.027	36.97
754.467	38.09
754.907	36.09
755.347	37.47
755.787	36.91
756.227	36.61
756.667	36.15
757.107	36.49
757.546	37.11
757.986	36.51
758.426	36.54
758.865	36.63
759.305	36.79
759.745	36.62
760.184	36.52
760.624	36.75
761.063	37.66
761.503	36.42
761.943	36.9
762.382	36.67
762.821	36.33
763.261	37.67
763.7	36.97
764.14	36.74
764.579	37.46
765.018	36.97
765.457	37.29
765.897	37.39
766.336	37.62
766.775	36.84
767.214	35.12
767.653	36.16
768.092	37.12
768.531	38.3
768.97	37.03
769.409	36.46
769.848	37.42
770.287	36.49
770.726	37.49
771.165	37.14
771.604	37.56
772.043	37.49
772.482	37.32
772.92	37.07
773.359	36.49
773.798	36.69
774.237	36.97
774.675	37
775.114	37.53
775.553	36.65
775.991	37.44
776.43	37.25
776.868	37.76
777.307	37.51
777.745	38.35
778.184	37.31
778.622	37.5
779.06	36.72
779.499	36.78
779.937	37.98
780.375	36.84
780.814	36.98
781.252	37.48
781.69	37.28
782.128	38.05
782.566	37.24
783.004	36.6
783.443	37.53
783.881	37.3
784.319	37.54
784.757	36.82
785.195	35.87
785.633	37.16
786.071	37.61
786.508	37.55
786.946	37.97
787.384	37.93
787.822	37.42
788.26	38.31
788.697	37
789.135	37.53
789.573	37.36
790.011	37.46
790.448	37.21
790.886	36.84
791.323	36.95
791.761	37.65
792.198	36.69
792.636	36.85
793.073	38.22
793.511	37.38
793.948	37.65
794.386	38.05
794.823	38.28
795.26	37.7
795.698	36.67
796.135	37.98
796.572	37.53
797.009	37.72
797.446	37.73
797.884	37.56
798.321	36.63
798.758	37.62
799.195	37.55
799.632	37.21
800.069	38.46
800.506	38.15
800.943	37.91
801.38	37.7
801.817	37.65
802.254	37.12
802.69	38.85
803.127	37.58
803.564	38.15
804.001	38.2
804.438	37.56
804.874	38.3
805.311	37.92
805.748	38.57
806.184	37.72
806.621	38.5
807.057	37.54
807.494	38.02
807.93	37.75
808.367	38.23
808.803	37.61
809.24	38.6
809.676	37.7
810.112	38.07
810.549	37.22
810.985	38.39
811.421	37.56
811.857	38.08
812.294	37.74
812.73	37.33
813.166	38.63
813.602	37.63
814.038	38.14
814.474	37.95
814.91	38.38
815.346	38.12
815.782	38.21
816.218	37.96
816.654	38.58
817.09	37.84
817.526	38.4
817.962	38.07
818.398	37.76
818.833	38.1
819.269	37.64
819.705	37.32
820.141	38.77
820.576	38.56
821.012	38.19
821.447	37.95
821.883	38.63
822.319	37.77
822.754	38.48
823.19	38.19
823.625	38.04
824.061	38.58
824.496	37.86
824.931	37.74
825.367	38.8
825.802	38.74
826.237	38.24
826.673	38.77
827.108	37.71
827.543	38.62
827.978	38.3
828.413	37.32
828.849	38.08
829.284	38.62
829.719	37.59
830.154	38.98
830.589	38.69
831.024	38
831.459	38.63
831.894	38.53
832.329	39.01
832.763	37.92
833.198	38.92
833.633	38.74
834.068	38.5
834.503	38.18
834.937	38.39
835.372	38.14
835.807	38.07
836.241	37.94
836.676	39.18
837.111	38.6
837.545	38.81
837.98	38.79
838.414	38.72
838.849	38.27
839.283	38.55
839.717	39.18
840.152	39.03
840.586	38.88
841.021	38.79
841.455	38.47
841.889	37.74
842.323	39.43
842.758	38.85
843.192	38.37
843.626	39.66
844.06	38.51
844.494	39.02
844.928	37.96
845.362	38.76
845.796	39.21
846.23	38.34
846.664	38.6
847.098	38.91
847.532	39.55
847.966	38.7
848.4	39.12
848.834	38.66
849.267	39.83
849.701	39.57
850.135	39.22
850.569	38.95
851.002	38.6
851.436	38.75
851.87	38.77
852.303	39.6
852.737	39.18
853.17	39.76
853.604	39.56
854.037	38.98
854.471	40.21
854.904	39.87
855.337	38.34
855.771	39.37
856.204	39.27
856.637	39.13
857.071	38.7
857.504	39.08
857.937	39.03
858.37	39.27
858.804	39.79
859.237	40.12
859.67	39.42
860.103	39.89
860.536	38.49
860.969	39.98
861.402	39.31
861.835	39.73
862.268	39.61
862.701	39.91
863.134	38.68
863.566	40.16
863.999	39.18
864.432	39.65
864.865	39.75
865.298	38.5
865.73	39.36
866.163	39.72
866.596	40.11
867.028	38.84
867.461	39.33
867.893	40.35
868.326	39.3
868.758	39.42
869.191	39.29
869.623	39.65
870.056	39.94
870.488	39.56
870.92	39.62
871.353	39.05
871.785	38.81
872.217	39.59
872.65	40.42
873.082	39.4
873.514	39.87
873.946	38.89
874.378	40.68
874.81	39.31
875.243	40.59
875.675	39.97
876.107	39.17
876.539	39.87
876.971	39.22
877.403	40.27
877.834	40
878.266	39.44
878.698	38.77
879.13	39.78
879.562	39.72
879.994	40.15
880.425	39.94
880.857	39.96
881.289	39.79
881.72	39.74
882.152	39.97
882.584	39.61
883.015	39.53
883.447	38.82
883.878	39.86
884.31	39.76
884.741	39.33
885.173	40.48
885.604	39.92
886.035	39.78
886.467	40.62
886.898	40.33
887.329	39.94
887.76	40.26
888.192	39.25
888.623	40.22
889.054	40.09
889.485	39.36
889.916	40.1
890.347	39.71
890.778	40.04
891.209	39.9
891.64	40.17
892.071	40.24
892.502	40.37
892.933	40.16
893.364	40.2
893.795	40.45
894.226	40.33
894.657	40.52
895.087	40.25
895.518	39.99
895.949	40.18
896.38	39.97
896.81	40.73
897.241	40.25
897.671	39.97
898.102	40.27
898.533	39.63
898.963	40.54
899.394	40.5
899.824	40.4
900.254	40.16
900.685	39.82
901.115	40.03
901.546	40.51
901.976	40.04
902.406	39.98
902.836	40.82
903.267	40.41
903.697	40.77
904.127	40.43
904.557	40.64
904.987	40.44
905.417	40.66
905.847	40.05
906.277	40.73
906.707	40.52
907.137	40.85
907.567	40.01
907.997	39.89
908.427	40.54
908.857	40.24
909.287	40.93
909.717	40.76
910.146	40.93
910.576	39.99
911.006	40.73
911.436	40.69
911.865	40.23
912.295	40.79
912.724	40.46
913.154	40.51
913.584	40.27
914.013	41.17
914.443	40.4
914.872	41.2
915.302	40.34
915.731	40.72
916.16	40.72
916.59	40.36
917.019	40.49
917.448	40.07
917.878	40.87
918.307	40.52
918.736	41.63
919.165	40.28
919.594	40.78
920.023	40.25
920.452	40.74
920.882	40.48
921.311	40.23
921.74	40.8
922.169	40.79
922.597	41.01
923.026	41.35
923.455	40.58
923.884	40.16
924.313	40.96
924.742	40.64
925.171	41.21
925.599	41.27
926.028	41.15
926.457	40.32
926.885	41.23
927.314	41.2
927.743	40.83
928.171	40.56
928.6	41.24
929.028	41.09
929.457	40.91
929.885	40.61
930.314	41.16
930.742	40.46
931.17	41.06
931.599	40.67
932.027	40.19
932.455	40.6
932.884	41.5
933.312	40.96
933.74	41.12
934.168	41.2
934.596	40.07
935.025	41.31
935.453	40.91
935.881	41.35
936.309	40.62
936.737	41
937.165	40.36
937.593	41.28
938.021	40.92
938.449	40.68
938.876	40.82
939.304	41.43
939.732	40.62
940.16	40.31
940.588	41.86
941.015	40.7
941.443	41.73
941.871	42.96
942.298	41.02
942.726	41.1
943.154	41.97
943.581	41.71
944.009	40.97
944.436	41.72
944.864	41.8
945.291	41.34
945.718	41.33
946.146	42.79
946.573	41.73
947.001	41.99
947.428	42.81
947.855	40.56
948.282	41.9
948.71	40.81
949.137	41.86
949.564	42.41
949.991	41.78
950.418	42.59
950.845	41.46
951.272	42.11
951.699	42.22
952.126	41.85
952.553	42.16
952.98	42.12
953.407	41.96
953.834	41.74
954.261	41.62
954.688	41.37
955.114	41.76
955.541	42.48
955.968	41.09
956.395	41.87
956.821	41.44
957.248	41.75
957.674	42.16
958.101	41.36
958.528	41.87
958.954	42.64
959.381	41.6
959.807	41.78
960.234	41.75
960.66	41.51
961.086	41.82
961.513	41.69
961.939	41.41
962.365	42.04
962.792	41.86
963.218	41.93
963.644	41.64
964.07	42.29
964.496	42.39
964.923	42.65
965.349	41.53
965.775	42.25
966.201	42.09
966.627	42.35
967.053	41.98
967.479	42.26
967.905	41.79
968.331	41.75
968.756	41.71
969.182	41.51
969.608	41.89
970.034	42.21
970.46	41.98
970.885	42.48
971.311	41.93
971.737	42.48
972.162	42.14
972.588	42.5
973.014	42.4
973.439	42.2
973.865	42.44
974.29	41.84
974.716	42.6
975.141	42.13
975.567	41.66
975.992	42.09
976.417	42.13
976.843	42.32
977.268	42.22
977.693	41.79
978.119	42.14
978.544	41.94
978.969	42.61
979.394	42.65
979.819	42.03
980.244	42.5
980.669	42.29
981.095	41.8
981.52	42.39
981.945	42.07
982.369	42.5
982.794	42.66
983.219	42.38
983.644	41.67
984.069	43.06
984.494	41.47
984.919	42.23
985.343	42.41
985.768	42.15
986.193	42.52
986.618	42.6
987.042	43.29
987.467	42.47
987.891	42.19
988.316	42.23
988.741	43.08
989.165	42.51
989.59	43.06
990.014	43.14
990.438	41.76
990.863	42.87
991.287	43.19
991.712	42.48
992.136	42.57
992.56	42.6
992.984	42.63
993.409	43.03
993.833	43.02
994.257	42.58
994.681	42.5
995.105	42.34
995.529	43.32
995.953	42.81
996.377	42.79
996.801	42.41
997.225	42.95
997.649	42.9
998.073	42.45
998.497	42.86
998.921	42.74
999.345	43.2
999.769	42.98
1000.192	42.86
1000.616	42.79
1001.04	43.67
1001.464	42.78
1001.887	43.03
1002.311	42.74
1002.734	43.07
1003.158	42.52
1003.582	42.79
1004.005	43.18
1004.429	43.07
1004.852	43.24
1005.275	42.64
1005.699	42.67
1006.122	43.22
1006.546	42.66
1006.969	42.93
1007.392	42.81
1007.815	43.21
1008.239	42.94
1008.662	43.36
1009.085	43.33
1009.508	42.79
1009.931	43.2
1010.354	43.23
1010.778	42.86
1011.201	43.28
1011.624	43.39
1012.047	43.01
1012.469	44.36
1012.892	43.33
1013.315	43.27
1013.738	43.73
1014.161	44
1014.584	42.97
1015.007	43.65
1015.429	42.85
1015.852	43.9
1016.275	43.19
1016.697	43.76
1017.12	43.67
1017.543	43.55
1017.965	43.49
1018.388	43.98
1018.81	44.25
1019.233	43.49
1019.655	43.81
1020.078	43.74
1020.5	43.27
1020.922	44.16
1021.345	43.82
1021.767	44.52
1022.189	43.13
1022.612	43.39
1023.034	44.05
1023.456	43.86
1023.878	43.71
1024.301	43.99
1024.723	44.32
1025.145	44.33
1025.567	44.17
1025.989	43.87
1026.411	44.22
1026.833	43.86
1027.255	44.05
1027.677	44.2
1028.099	44.66
1028.52	44.04
1028.942	44.3
1029.364	45.26
1029.786	43.77
1030.208	43.61
1030.629	44.57
1031.051	44.23
1031.473	44.59
1031.894	43.61
1032.316	44.08
1032.738	44.3
1033.159	44.12
1033.581	44.21
1034.002	44.62
1034.424	44.72
1034.845	44.67
1035.267	44.44
1035.688	44.3
1036.109	43.96
1036.531	45.24
1036.952	43.97
1037.373	44.5
1037.794	44.96
1038.216	44.46
1038.637	44.49
1039.058	44.66
1039.479	44.43
1039.9	43.9
1040.321	44.27
1040.742	44.86
1041.163	44.55
1041.584	44.26
1042.005	45.09
1042.426	45.28
1042.847	45.41
1043.268	45.39
1043.689	45.16
1044.11	45.77
1044.53	44.77
1044.951	44.96
1045.372	45.25
1045.793	44.63
1046.213	44.76
1046.634	44.65
1047.055	45.46
1047.475	45.1
1047.896	44.89
1048.316	45.38
1048.737	45.5
1049.157	45.8
1049.578	44.94
1049.998	45.56
1050.419	44.91
1050.839	44.5
1051.259	44.78
1051.68	45.5
1052.1	44.94
1052.52	45.41
1052.94	45.13
1053.361	45.42
1053.781	46.16
1054.201	44.51
1054.621	44.72
1055.041	45.46
1055.461	44.92
1055.881	45.26
1056.301	44.87
1056.721	45.1
1057.141	44.57
1057.561	45.26
1057.981	45.96
1058.401	46.39
1058.82	46.05
1059.24	45.32
1059.66	46.16
1060.08	45.82
1060.499	45.45
1060.919	45.58
1061.339	45.32
1061.758	45.73
1062.178	46.84
1062.598	45.92
1063.017	46.01
1063.437	46.13
1063.856	46.4
1064.276	45.91
1064.695	45.3
1065.114	44.97
1065.534	46.86
1065.953	45.05
1066.372	44.79
1066.792	46.59
1067.211	45.52
1067.63	45.66
1068.049	46.49
1068.469	46.57
1068.888	46.88
1069.307	46.3
1069.726	45.99
1070.145	45.62
1070.564	45.92
1070.983	46.7
1071.402	46.47
1071.821	46.47
1072.24	46
1072.659	44.3
1073.078	47.4
1073.496	46.7
1073.915	46.94
1074.334	45.63
1074.753	45.67
1075.171	46.25
1075.59	46.26
1076.009	47.13
1076.427	46.13
1076.846	45.89
1077.265	46.47
1077.683	45.46
1078.102	46.23
1078.52	47.79
1078.939	47.25
1079.357	48.09
1079.776	47.34
1080.194	46.04
1080.612	46.76
1081.031	47.52
1081.449	45.83
1081.867	48.97
1082.285	46.32
1082.704	46.46
1083.122	46.3
1083.54	48.17
1083.958	46.73
1084.376	46.61
1084.794	47.22
1085.212	47.04
1085.63	46.61
1086.048	44.3
1086.466	46.62
1086.884	46.22
1087.302	45.63
1087.72	47.18
1088.138	46.83
1088.555	45.2
1088.973	47.28
1089.391	46.62
1089.809	46.83
1090.226	49.07
1090.644	48.25
1091.062	44.45
1091.479	48.46
1091.897	47.65
1092.314	45.68
1092.732	46.09
1093.15	48
1093.567	46.99
1093.984	46.72
1094.402	47.61
1094.819	47.73
1095.237	47.17
1095.654	45.41
1096.071	49.04
1096.488	45.88
1096.906	47.24
1097.323	48.49
1097.74	48.63
1098.157	47.06
1098.574	48.66
1098.991	48.11
1099.409	47.36
1099.826	49.35
1100.243	46.58
1100.66	50.17
1101.077	47.4
1101.494	49.43
1101.91	47.65
1102.327	47.91
1102.744	45.85
1103.161	50.9
1103.578	45
1103.994	47.6
1104.411	46.07
1104.828	50.54
1105.245	47.32
1105.661	49.98
1106.078	48.28
1106.494	49.03
1106.911	50.29
1107.328	48.38
1107.744	50.59
1108.161	47.35
1108.577	47.3
1108.993	50.34
1109.41	48.64
1109.826	51.98
1110.242	50.98
1110.659	49.16
1111.075	49.42
1111.491	48.31
1111.908	52.43
1112.324	50.3
1112.74	64.15
1113.156	46.29
1113.572	49.8
1113.988	51.4
1114.404	52.54
1114.82	52.78
1115.236	47.3
1115.652	53.98
1116.068	47.53
1116.484	48.34
1116.9	50.06
1117.316	49.4
1117.732	-52
1118.147	30.43
1118.563	414.29
1118.979	172.73
