Data from JCR0009_Black1_Reflection_00003.txt Node
Date: Wed Jul 22 16:40:22 ACST 2020
User: Stacey Dix
Spectrometer: MAYP113282
Scans to average: 1
Trigger mode: 0
Integration Time (sec): 1.000000E-1
Electric dark correction enabled: true
Boxcar width: 0
XAxis mode: Wavelengths
Number of Pixels in Spectrum: 2068
>>>>>Begin Spectral Data<<<<<
198.791	-584
199.266	210.53
199.74	86.96
200.215	-32
200.69	101.94
201.164	119.39
201.639	59.03
202.114	81.67
202.588	80.13
203.063	108.17
203.537	75.96
204.012	56.04
204.486	60.5
204.961	64.11
205.435	54.36
205.909	76.92
206.384	85.82
206.858	71.17
207.332	84.38
207.807	76.92
208.281	77.35
208.755	74.2
209.229	66.96
209.703	73.42
210.177	27.65
210.651	41.96
211.126	76.66
211.6	58.23
212.074	48.2
212.548	65.41
213.021	53.98
213.495	48.22
213.969	54.73
214.443	45.65
214.917	55.67
215.391	23.63
215.864	28.69
216.338	49.89
216.812	34.5
217.286	27.66
217.759	48.99
218.233	57.58
218.706	37.77
219.18	37.91
219.654	35.22
220.127	58.41
220.6	43.13
221.074	33.67
221.547	28.91
222.021	38.77
222.494	21.9
222.967	24.91
223.441	32.98
223.914	45.59
224.387	19.98
224.86	27.23
225.334	13.07
225.807	27.86
226.28	27.24
226.753	25.15
227.226	26.02
227.699	16.03
228.172	14.02
228.645	18.52
229.118	18.13
229.591	22.01
230.064	15.29
230.537	16.58
231.01	13.18
231.482	11.96
231.955	16.15
232.428	15.18
232.901	9.15
233.373	13.73
233.846	10.06
234.319	8.01
234.791	13.26
235.264	10.44
235.736	7.83
236.209	9.09
236.681	10.98
237.154	10.67
237.626	8.41
238.099	10.96
238.571	6.75
239.044	6.99
239.516	8.77
239.988	7.79
240.46	8.43
240.933	10.05
241.405	8.3
241.877	6.87
242.349	5.2
242.821	7.76
243.293	7.25
243.765	6.1
244.237	8.39
244.71	8.94
245.181	7.81
245.653	8.29
246.125	7.07
246.597	9.21
247.069	4.72
247.541	7.92
248.013	8.27
248.485	7.75
248.956	9.03
249.428	6.33
249.9	6.89
250.371	6.19
250.843	6.45
251.315	5.44
251.786	5.34
252.258	3.91
252.729	6.09
253.201	6.35
253.672	6.05
254.144	4.72
254.615	4.62
255.086	4.5
255.558	5.39
256.029	4.47
256.5	5.04
256.972	5.31
257.443	5.44
257.914	4.7
258.385	5.18
258.856	3.5
259.327	4.92
259.799	4.24
260.27	5.37
260.741	5.86
261.212	4.54
261.683	4.13
262.154	5.23
262.624	4.02
263.095	3.42
263.566	4.34
264.037	3.42
264.508	4.67
264.979	4.33
265.449	4.03
265.92	4.56
266.391	4.4
266.861	4.21
267.332	5.51
267.803	4.43
268.273	4.11
268.744	3.71
269.214	4.04
269.685	3.88
270.155	4.65
270.626	4.13
271.096	5.96
271.566	5.34
272.037	4.66
272.507	5.21
272.977	5.28
273.448	4.3
273.918	4.37
274.388	5.27
274.858	5.85
275.328	4.51
275.798	4.49
276.268	5.11
276.738	3.85
277.208	4.76
277.678	6.04
278.148	5.34
278.618	4.95
279.088	4.39
279.558	5.26
280.028	6.06
280.498	3.96
280.968	5.49
281.437	5.25
281.907	4.55
282.377	3.97
282.847	4.52
283.316	4.1
283.786	2.86
284.255	4.21
284.725	4.22
285.194	4.43
285.664	3.68
286.133	3.65
286.603	5.14
287.072	3.31
287.542	3.86
288.011	4.96
288.48	4.05
288.95	3.46
289.419	4.65
289.888	3.89
290.357	4.92
290.827	3.7
291.296	2.37
291.765	4.52
292.234	3.71
292.703	4.88
293.172	4.57
293.641	3.72
294.11	3.89
294.579	3.23
295.048	4.28
295.517	4.36
295.986	4.56
296.455	5.49
296.923	4.81
297.392	5.49
297.861	3.91
298.33	5.2
298.798	4.02
299.267	5.18
299.736	4.4
300.204	4.49
300.673	3.14
301.141	3.96
301.61	6
302.079	4.18
302.547	3.29
303.015	3.49
303.484	5.39
303.952	4.9
304.421	2.58
304.889	2.8
305.357	5.41
305.825	5.39
306.294	3.84
306.762	4.92
307.23	4.12
307.698	5.12
308.166	5.57
308.634	4.61
309.103	5.16
309.571	5.3
310.039	5.3
310.507	4.3
310.975	4.19
311.442	3.8
311.91	4.51
312.378	5.26
312.846	4.19
313.314	4.72
313.782	5.22
314.249	4.47
314.717	6.14
315.185	6.17
315.652	4.65
316.12	5.64
316.588	4.93
317.055	4.48
317.523	5.2
317.99	4.26
318.458	4.92
318.925	4.09
319.393	4.1
319.86	5.88
320.328	4.91
320.795	5.46
321.262	5.57
321.73	4.76
322.197	4.19
322.664	6.46
323.131	4.44
323.598	5.02
324.066	6.24
324.533	4.26
325	4.98
325.467	4.3
325.934	5.16
326.401	4.07
326.868	4.09
327.335	5.6
327.802	3.77
328.269	4.67
328.735	5.19
329.202	5.93
329.669	6.05
330.136	5.24
330.603	5.6
331.069	5.56
331.536	4.51
332.003	5.12
332.469	5.68
332.936	3.9
333.402	5.02
333.869	4.57
334.336	5.23
334.802	6.02
335.268	5.3
335.735	6.73
336.201	4.67
336.668	4.59
337.134	5.23
337.6	4.09
338.067	6.4
338.533	4.3
338.999	5.16
339.465	6.52
339.931	4.99
340.398	5.43
340.864	5.68
341.33	4.38
341.796	5.91
342.262	4.8
342.728	5.62
343.194	5.95
343.66	4.65
344.126	4.74
344.592	4.08
345.057	6.47
345.523	4.48
345.989	5.72
346.455	4.86
346.921	6.45
347.386	3.94
347.852	5.38
348.318	4.88
348.783	5.8
349.249	4
349.714	6.31
350.18	5.7
350.645	6.25
351.111	4.9
351.576	4.89
352.042	4.82
352.507	4.57
352.973	5.42
353.438	5.75
353.903	5.44
354.369	5.13
354.834	6.54
355.299	5.36
355.764	4.93
356.229	5.16
356.695	5.01
357.16	5.19
357.625	3.92
358.09	5.65
358.555	7.03
359.02	6.8
359.485	3.62
359.95	5.67
360.415	4.56
360.879	6.08
361.344	6.28
361.809	4.48
362.274	5.01
362.739	6.79
363.203	7.38
363.668	7.39
364.133	6.6
364.597	5.54
365.062	5.49
365.527	7.35
365.991	6.25
366.456	6.17
366.92	5.78
367.385	6.24
367.849	6.48
368.314	5.98
368.778	4.57
369.242	5.78
369.707	5.49
370.171	5.03
370.635	6.62
371.1	6.42
371.564	6.86
372.028	6.81
372.492	5.01
372.956	5.75
373.42	6.27
373.884	5
374.348	6.32
374.812	5.29
375.276	5.16
375.74	5.62
376.204	6.59
376.668	5.65
377.132	6.99
377.596	6.29
378.06	5.18
378.524	5.92
378.987	6.55
379.451	5.04
379.915	4.36
380.378	5.56
380.842	3.85
381.306	5.99
381.769	5.12
382.233	7.7
382.696	5.76
383.16	6.93
383.623	4.5
384.087	6.38
384.55	6.8
385.014	4.52
385.477	5.4
385.94	6.82
386.404	4.91
386.867	5.95
387.33	5.64
387.793	6.9
388.256	6.09
388.72	4.83
389.183	5.71
389.646	5.22
390.109	5.69
390.572	7.53
391.035	5.02
391.498	4.72
391.961	6.24
392.424	6.05
392.887	5.95
393.35	4.36
393.812	6.1
394.275	4.66
394.738	4.97
395.201	5.33
395.664	6.23
396.126	5.63
396.589	6.61
397.052	5.23
397.514	6.05
397.977	5.97
398.439	5.27
398.902	4.36
399.364	6.94
399.827	5.07
400.289	5.84
400.752	6.2
401.214	5.43
401.676	5.22
402.139	4.32
402.601	5.33
403.063	7.12
403.525	6.75
403.988	6.59
404.45	6.52
404.912	4.95
405.374	5.8
405.836	4.49
406.298	6.59
406.76	4.83
407.222	5.23
407.684	6.02
408.146	4.41
408.608	5.34
409.07	6.66
409.532	6.05
409.994	5.64
410.456	6.56
410.917	4.9
411.379	5.54
411.841	5.1
412.303	4.81
412.764	6.95
413.226	3.92
413.687	4.88
414.149	7.04
414.611	6.28
415.072	4.89
415.534	5.78
415.995	4.91
416.457	4.74
416.918	4.94
417.379	5.06
417.841	5.06
418.302	6.02
418.763	4.87
419.225	6.42
419.686	5.08
420.147	5.89
420.608	5.41
421.069	5.05
421.53	4.69
421.991	5.37
422.453	3.93
422.914	6.48
423.375	5.34
423.836	4.93
424.297	7.41
424.757	5.06
425.218	6.22
425.679	6.8
426.14	5.66
426.601	6.48
427.062	7.45
427.522	9.18
427.983	5.93
428.444	6.84
428.904	6.31
429.365	7
429.826	6.56
430.286	5.79
430.747	8.68
431.207	10.21
431.668	7.85
432.128	8.82
432.589	7.66
433.049	7.2
433.509	7.95
433.97	6.16
434.43	8.52
434.89	9.46
435.351	6.69
435.811	8.1
436.271	6.81
436.731	8.29
437.191	7.61
437.651	7.72
438.112	8.87
438.572	7.31
439.032	8.63
439.492	7.87
439.952	6.9
440.412	7.45
440.871	10.84
441.331	8.34
441.791	8.57
442.251	7.08
442.711	7.08
443.171	6.82
443.63	5.89
444.09	9.04
444.55	7.6
445.009	8.61
445.469	6.24
445.929	8.31
446.388	8.45
446.848	8.12
447.307	7
447.767	7.46
448.226	8.37
448.686	7.61
449.145	5.5
449.604	5.64
450.064	7.13
450.523	7.35
450.982	8.64
451.442	6.43
451.901	9.67
452.36	9.37
452.819	6.76
453.278	6.93
453.737	9.76
454.197	6.25
454.656	8.59
455.115	8.69
455.574	8.49
456.033	8.12
456.492	8.17
456.95	8.06
457.409	8.45
457.868	9.31
458.327	8.04
458.786	9.11
459.245	7.56
459.703	7.01
460.162	9.03
460.621	7.94
461.079	8.61
461.538	8.38
461.997	8.38
462.455	7.77
462.914	10
463.372	8.91
463.831	8.37
464.289	7.09
464.748	9.58
465.206	8.85
465.664	8.3
466.123	9.05
466.581	7.93
467.039	8.34
467.497	9.42
467.956	9.47
468.414	9.81
468.872	8.62
469.33	8.83
469.788	8.13
470.246	7.55
470.704	7.12
471.162	10
471.62	9.18
472.078	10.53
472.536	7.66
472.994	9.56
473.452	8.72
473.91	10.18
474.368	9.7
474.826	7.85
475.283	10.41
475.741	11.35
476.199	8.84
476.656	7.74
477.114	7.25
477.572	7.37
478.029	8.87
478.487	7.89
478.944	7.81
479.402	12.15
479.859	9.41
480.317	7.53
480.774	8.88
481.232	9.02
481.689	8.04
482.146	8.57
482.604	9.23
483.061	7.8
483.518	10.17
483.975	7.63
484.433	8.04
484.89	10.63
485.347	10.01
485.804	8.43
486.261	10.06
486.718	8.06
487.175	9.4
487.632	9.28
488.089	8.35
488.546	9.1
489.003	10.39
489.46	11.84
489.917	7.89
490.373	8.59
490.83	8.39
491.287	9.31
491.744	10.1
492.2	10.12
492.657	7.37
493.114	9.27
493.57	7.34
494.027	12.01
494.484	10.51
494.94	9.16
495.397	9.62
495.853	9.72
496.31	9.61
496.766	9.83
497.222	10.29
497.679	12
498.135	7.88
498.591	9.72
499.048	10.65
499.504	9.62
499.96	11.45
500.416	8.87
500.872	7.99
501.329	7.86
501.785	8.03
502.241	9.09
502.697	7.65
503.153	12.47
503.609	9.85
504.065	10.4
504.521	7.62
504.977	9.54
505.432	7.1
505.888	9.64
506.344	8.03
506.8	9.38
507.256	9.05
507.711	7.96
508.167	9.16
508.623	9.46
509.078	8.57
509.534	8.18
509.99	9.81
510.445	7.07
510.901	9.08
511.356	9.27
511.812	8.97
512.267	8.89
512.722	7.91
513.178	9.18
513.633	8.66
514.089	9.06
514.544	8.46
514.999	7.68
515.454	8.26
515.91	8.51
516.365	8.13
516.82	7.16
517.275	9.18
517.73	7.66
518.185	6.35
518.64	8.98
519.095	8.31
519.55	8.22
520.005	8.21
520.46	7.54
520.915	10.09
521.37	6.67
521.825	9.01
522.28	8.53
522.734	9.91
523.189	8.87
523.644	9.38
524.099	8.41
524.553	9.32
525.008	6.95
525.462	8.36
525.917	7.77
526.372	8.16
526.826	10.15
527.281	7.1
527.735	9.22
528.19	8.59
528.644	8.71
529.098	8.83
529.553	10.83
530.007	8.32
530.461	8.28
530.916	9.72
531.37	9.24
531.824	8.6
532.278	7.26
532.732	10.45
533.186	8.73
533.641	7.78
534.095	11.48
534.549	7.55
535.003	7.97
535.457	10.3
535.911	7.1
536.365	6.94
536.818	9.16
537.272	9.83
537.726	10.13
538.18	9.51
538.634	9.91
539.087	8.68
539.541	7.91
539.995	7.94
540.449	9.53
540.902	8.31
541.356	8.9
541.809	9.4
542.263	7.97
542.716	7.81
543.17	11.35
543.623	9.26
544.077	9.68
544.53	7.71
544.984	8.99
545.437	9.37
545.89	8.2
546.344	7.93
546.797	8.95
547.25	8.43
547.703	9.49
548.157	9.85
548.61	6.78
549.063	9.7
549.516	6.94
549.969	8.64
550.422	10.47
550.875	8.76
551.328	10.28
551.781	7.66
552.234	9.43
552.687	8.63
553.14	6.61
553.592	9.14
554.045	8.79
554.498	9.29
554.951	7.21
555.404	7.66
555.856	7.74
556.309	8.8
556.762	7.07
557.214	9.16
557.667	7.93
558.119	8.45
558.572	7.21
559.024	8.32
559.477	8.45
559.929	9.59
560.382	7.93
560.834	8.3
561.286	8.73
561.739	9.02
562.191	7.88
562.643	8.93
563.095	10.41
563.548	8.36
564	9.12
564.452	9.67
564.904	9
565.356	8.91
565.808	8.86
566.26	8.69
566.712	8.75
567.164	9.38
567.616	8.04
568.068	9.61
568.52	7.84
568.972	8.3
569.424	7.42
569.876	7.41
570.327	8.18
570.779	8.19
571.231	9.02
571.682	7.64
572.134	7.51
572.586	9.02
573.037	8.03
573.489	8.31
573.941	7.71
574.392	8.81
574.844	9.1
575.295	8.02
575.746	6.57
576.198	8.09
576.649	8.04
577.101	7.03
577.552	6.76
578.003	7.52
578.454	7.01
578.906	7
579.357	7.98
579.808	6.6
580.259	7.24
580.71	7.35
581.161	8.36
581.612	6.9
582.064	7.07
582.515	8.12
582.965	8.06
583.416	7.33
583.867	8.47
584.318	8.08
584.769	8.42
585.22	7.78
585.671	8.74
586.122	8.12
586.572	7.39
587.023	9.11
587.474	8.58
587.924	8.54
588.375	7.34
588.826	8.94
589.276	7.44
589.727	8.07
590.177	9.19
590.628	8.04
591.078	7.58
591.529	8.58
591.979	7.39
592.429	8.81
592.88	7.96
593.33	8.31
593.78	7.23
594.231	8.45
594.681	7.98
595.131	8.2
595.581	8.45
596.031	8.03
596.481	7.27
596.932	7.84
597.382	9.93
597.832	9.15
598.282	8.38
598.732	8.39
599.182	7.36
599.632	8.88
600.081	8.49
600.531	8.69
600.981	8.41
601.431	7.74
601.881	7.73
602.33	8.56
602.78	7.38
603.23	7.94
603.679	9.45
604.129	7
604.579	7.91
605.028	7.82
605.478	8.64
605.927	8.56
606.377	8.65
606.826	8.22
607.276	8.5
607.725	7.07
608.175	8.9
608.624	8.39
609.073	7.65
609.522	7.96
609.972	8.26
610.421	7.49
610.87	7.41
611.319	7.23
611.768	8.72
612.218	7.86
612.667	8.31
613.116	8.43
613.565	8.34
614.014	7.67
614.463	8.36
614.912	8.56
615.361	8.36
615.81	8.51
616.258	7.41
616.707	8.26
617.156	8.14
617.605	7.7
618.054	8.02
618.502	8.19
618.951	7.55
619.4	8.08
619.848	7.76
620.297	7.76
620.745	8.56
621.194	8.64
621.642	8.74
622.091	7.67
622.539	7.84
622.988	7.83
623.436	8.37
623.885	7.58
624.333	8.6
624.781	8.39
625.23	8.44
625.678	8.36
626.126	8.48
626.574	8.44
627.022	7.93
627.471	8.17
627.919	8.12
628.367	7.94
628.815	8.28
629.263	7.64
629.711	7.37
630.159	8.36
630.607	7.47
631.055	7.99
631.503	7.38
631.95	7.19
632.398	7.94
632.846	7.28
633.294	8.27
633.742	7.55
634.189	7.91
634.637	8.71
635.085	8.04
635.532	8.16
635.98	8.38
636.427	7.05
636.875	7.74
637.323	7.72
637.77	8.32
638.217	7.49
638.665	7.59
639.112	7.6
639.56	8.92
640.007	7.94
640.454	8.24
640.902	8.31
641.349	7.85
641.796	8.03
642.243	7.87
642.69	8.62
643.138	9.05
643.585	7.22
644.032	8.2
644.479	8.4
644.926	7.91
645.373	7.9
645.82	8.42
646.267	9.07
646.714	7.66
647.161	8.36
647.607	7.45
648.054	7.82
648.501	8.43
648.948	8.61
649.395	8.8
649.841	8.88
650.288	7.77
650.735	7.57
651.181	8.09
651.628	8.13
652.075	8.25
652.521	7.65
652.968	8.59
653.414	7.84
653.861	7.88
654.307	8.13
654.753	8.08
655.2	7.5
655.646	8.34
656.092	8.42
656.539	9.19
656.985	8.44
657.431	8.11
657.877	8.06
658.324	8.41
658.77	8.14
659.216	8.02
659.662	8.05
660.108	7.9
660.554	8.81
661	8
661.446	7.88
661.892	8.38
662.338	8.1
662.784	8.13
663.23	8.32
663.675	8.37
664.121	8.15
664.567	8.85
665.013	8.27
665.458	7.47
665.904	8.21
666.35	7.85
666.795	8.13
667.241	8.42
667.687	8.12
668.132	8.77
668.578	8.54
669.023	8.5
669.469	8.69
669.914	8.24
670.359	8.55
670.805	8.39
671.25	8.32
671.695	8.45
672.141	7.86
672.586	8.21
673.031	9.53
673.476	7.82
673.922	7.93
674.367	7.99
674.812	8.54
675.257	8.43
675.702	8.55
676.147	8.34
676.592	8.35
677.037	7.8
677.482	7.88
677.927	7.98
678.372	8.16
678.817	8.68
679.261	8.38
679.706	8.08
680.151	7.58
680.596	7.89
681.04	7.87
681.485	8.6
681.93	7.73
682.374	8.68
682.819	8.34
683.264	8.27
683.708	8.08
684.153	8.26
684.597	9.09
685.042	8.85
685.486	8.04
685.93	8.36
686.375	8.61
686.819	8.28
687.263	8.25
687.708	8.74
688.152	8.01
688.596	8.17
689.04	8.63
689.485	8.16
689.929	8.69
690.373	8.39
690.817	8.23
691.261	8.66
691.705	8.57
692.149	8.94
692.593	8.35
693.037	8.07
693.481	8.46
693.925	8.53
694.369	8.35
694.812	8.1
695.256	8.72
695.7	8.5
696.144	8.32
696.587	8.4
697.031	8.32
697.475	8.34
697.918	8.97
698.362	8.03
698.806	7.93
699.249	8.36
699.693	8.28
700.136	7.8
700.58	8.94
701.023	8.7
701.466	8.65
701.91	8.89
702.353	8.83
702.796	8.98
703.24	8.5
703.683	8.7
704.126	8.32
704.569	8.74
705.013	8.97
705.456	7.68
705.899	8.6
706.342	8.26
706.785	8.45
707.228	8.74
707.671	8.02
708.114	9.09
708.557	8.28
709	8.63
709.443	8.56
709.886	8.12
710.328	8.95
710.771	8.52
711.214	8.96
711.657	8.42
712.099	8.93
712.542	8.7
712.985	8.42
713.427	8.72
713.87	8.68
714.313	9.24
714.755	8.53
715.198	9.12
715.64	9.1
716.083	9.23
716.525	8.46
716.967	8.49
717.41	8.49
717.852	8.55
718.295	8.75
718.737	9.02
719.179	8.53
719.621	8.78
720.063	8.57
720.506	8.42
720.948	8.93
721.39	8.46
721.832	9.34
722.274	9.27
722.716	8.39
723.158	9.07
723.6	9.38
724.042	8.8
724.484	9.16
724.926	9.37
725.368	8.5
725.81	9.01
726.251	8.72
726.693	9.01
727.135	9.54
727.577	9.11
728.018	8.9
728.46	8.6
728.902	8.9
729.343	8.36
729.785	9.39
730.226	9.52
730.668	9.19
731.109	9.08
731.551	9.02
731.992	8.61
732.434	9.32
732.875	9.52
733.316	9.06
733.758	9.25
734.199	9.09
734.64	9.14
735.081	9.25
735.523	9.06
735.964	8.62
736.405	9.37
736.846	9.13
737.287	8.63
737.728	8.58
738.169	9.16
738.61	9.74
739.051	9.26
739.492	9.63
739.933	9.05
740.374	8.56
740.815	10.04
741.256	8.96
741.696	9.99
742.137	9.16
742.578	9.18
743.019	8.62
743.459	9.73
743.9	8.86
744.341	9.61
744.781	9.17
745.222	8.91
745.662	9.45
746.103	9.26
746.543	9.53
746.984	9.24
747.424	9.25
747.865	10.09
748.305	9.12
748.745	9.48
749.186	9.37
749.626	10.21
750.066	9.37
750.506	9.35
750.947	9.52
751.387	9.27
751.827	9.12
752.267	9.52
752.707	9.96
753.147	9.28
753.587	9.34
754.027	9.57
754.467	9.48
754.907	9.4
755.347	9.41
755.787	9.62
756.227	9.01
756.667	9.74
757.107	9.52
757.546	9.61
757.986	9.1
758.426	9.23
758.865	10.04
759.305	9.6
759.745	9.53
760.184	9.87
760.624	9.17
761.063	10.02
761.503	9.35
761.943	9.45
762.382	9.34
762.821	9.56
763.261	9.63
763.7	9.61
764.14	9.72
764.579	9.79
765.018	9.46
765.457	9.26
765.897	9.49
766.336	9.95
766.775	9.75
767.214	9.6
767.653	9.17
768.092	9.23
768.531	9.74
768.97	10.14
769.409	9.64
769.848	9.45
770.287	9.54
770.726	9.88
771.165	9.6
771.604	10.2
772.043	10.31
772.482	9
772.92	9.59
773.359	9.69
773.798	9.68
774.237	9.45
774.675	9.64
775.114	10.05
775.553	9.8
775.991	10.32
776.43	10.13
776.868	9.64
777.307	9.8
777.745	9.44
778.184	10.19
778.622	9.71
779.06	9.55
779.499	9.56
779.937	10.35
780.375	10.19
780.814	9.51
781.252	10.11
781.69	9.72
782.128	10.08
782.566	9.61
783.004	9.8
783.443	9.46
783.881	9.97
784.319	9.91
784.757	10.16
785.195	9.98
785.633	9.92
786.071	10.08
786.508	9.89
786.946	10.24
787.384	9.69
787.822	9.59
788.26	10.19
788.697	10.83
789.135	10.12
789.573	9.87
790.011	9.92
790.448	9.73
790.886	10.39
791.323	10.12
791.761	10.04
792.198	10.14
792.636	10.05
793.073	10.22
793.511	10.13
793.948	10.59
794.386	9.93
794.823	10.62
795.26	10.33
795.698	10.31
796.135	10.37
796.572	9.67
797.009	10.64
797.446	10.09
797.884	9.6
798.321	9.92
798.758	10.36
799.195	10
799.632	10.67
800.069	10.02
800.506	10.4
800.943	10.42
801.38	10.26
801.817	10.04
802.254	10.69
802.69	10.56
803.127	10.62
803.564	10.08
804.001	10.37
804.438	10.44
804.874	10.49
805.311	10.32
805.748	10.16
806.184	10.78
806.621	10.08
807.057	10.62
807.494	10.31
807.93	10.28
808.367	10.84
808.803	10.25
809.24	10.68
809.676	10.59
810.112	10.07
810.549	10.72
810.985	10.55
811.421	10.37
811.857	10.55
812.294	10.75
812.73	10.74
813.166	10.45
813.602	10.54
814.038	10.5
814.474	10.66
814.91	10.3
815.346	10.64
815.782	10.43
816.218	10.59
816.654	10.64
817.09	10.49
817.526	10.73
817.962	10.63
818.398	10.85
818.833	10.94
819.269	10.93
819.705	10.38
820.141	10.42
820.576	10.52
821.012	10.95
821.447	11.19
821.883	10.69
822.319	11.11
822.754	10.57
823.19	11.06
823.625	10.88
824.061	10.71
824.496	10.82
824.931	10.86
825.367	10.99
825.802	11.17
826.237	10.48
826.673	11.05
827.108	10.67
827.543	10.91
827.978	10.43
828.413	11.22
828.849	10.71
829.284	10.89
829.719	10.96
830.154	10.88
830.589	10.82
831.024	11.34
831.459	11.01
831.894	11.24
832.329	11.23
832.763	10.94
833.198	11.07
833.633	11.57
834.068	11.05
834.503	11.01
834.937	10.9
835.372	11.23
835.807	10.92
836.241	11.4
836.676	11.07
837.111	11.51
837.545	11.15
837.98	11.3
838.414	11.05
838.849	11.04
839.283	11.41
839.717	11.47
840.152	11.68
840.586	11.19
841.021	11.03
841.455	11.49
841.889	11.01
842.323	11.66
842.758	11.96
843.192	11.57
843.626	11.67
844.06	11.42
844.494	11.35
844.928	11.78
845.362	11.7
845.796	11.5
846.23	11.45
846.664	11.28
847.098	11.44
847.532	11.81
847.966	11.29
848.4	11.38
848.834	11.57
849.267	11.19
849.701	12
850.135	11.77
850.569	11.36
851.002	11.42
851.436	11.83
851.87	11.85
852.303	11.69
852.737	11.91
853.17	11.31
853.604	12.01
854.037	11.32
854.471	11.98
854.904	11.67
855.337	11.77
855.771	11.92
856.204	11.98
856.637	11.54
857.071	11.66
857.504	11.49
857.937	11.76
858.37	12.06
858.804	11.9
859.237	12.06
859.67	11.88
860.103	11.85
860.536	11.44
860.969	12.32
861.402	12.15
861.835	11.79
862.268	11.88
862.701	12.06
863.134	11.31
863.566	12.51
863.999	11.88
864.432	12.35
864.865	12.06
865.298	11.68
865.73	12.42
866.163	12
866.596	12.3
867.028	11.94
867.461	11.99
867.893	12.27
868.326	12.21
868.758	12.29
869.191	12.17
869.623	12.34
870.056	12.31
870.488	12.21
870.92	12.03
871.353	12.55
871.785	11.99
872.217	12.37
872.65	12.27
873.082	12.51
873.514	12.62
873.946	11.97
874.378	12.33
874.81	12.54
875.243	12.49
875.675	12.33
876.107	12.05
876.539	12.31
876.971	12.33
877.403	12.34
877.834	11.92
878.266	12.38
878.698	12.19
879.13	12.78
879.562	12.37
879.994	12.53
880.425	12.57
880.857	12.69
881.289	12.77
881.72	12.5
882.152	12.78
882.584	12.41
883.015	12.73
883.447	12.25
883.878	12.79
884.31	12.6
884.741	12.61
885.173	12.58
885.604	12.54
886.035	12.53
886.467	12.74
886.898	12.72
887.329	12.75
887.76	12.74
888.192	12.47
888.623	12.86
889.054	12.5
889.485	13.22
889.916	13.21
890.347	12.94
890.778	13.23
891.209	12.73
891.64	12.97
892.071	12.71
892.502	12.88
892.933	12.37
893.364	12.87
893.795	12.78
894.226	12.52
894.657	13.21
895.087	13.07
895.518	12.79
895.949	12.9
896.38	12.85
896.81	13.26
897.241	12.72
897.671	13.02
898.102	12.85
898.533	12.97
898.963	12.92
899.394	13.07
899.824	13.31
900.254	13.1
900.685	12.92
901.115	13.15
901.546	12.92
901.976	13.23
902.406	13.29
902.836	13.42
903.267	13.35
903.697	13.06
904.127	13.22
904.557	13.36
904.987	13.18
905.417	13.55
905.847	13.4
906.277	13.15
906.707	13.47
907.137	13.43
907.567	13.62
907.997	13.62
908.427	13.31
908.857	13.43
909.287	13.61
909.717	13.5
910.146	13.74
910.576	13.75
911.006	13.87
911.436	13.94
911.865	13.53
912.295	13.88
912.724	13.63
913.154	13.79
913.584	13.31
914.013	13.95
914.443	13.5
914.872	13.52
915.302	13.45
915.731	13.69
916.16	14.23
916.59	13.77
917.019	13.66
917.448	13.99
917.878	13.74
918.307	14.01
918.736	14.17
919.165	13.76
919.594	13.8
920.023	13.87
920.452	13.86
920.882	13.73
921.311	13.79
921.74	13.96
922.169	13.87
922.597	14.18
923.026	14.11
923.455	13.73
923.884	14.25
924.313	13.82
924.742	13.9
925.171	14
925.599	14.55
926.028	14.18
926.457	13.91
926.885	13.92
927.314	14.11
927.743	14.23
928.171	13.74
928.6	14.48
929.028	14.3
929.457	14.28
929.885	14.03
930.314	14.16
930.742	14.5
931.17	14.5
931.599	14.43
932.027	14.51
932.455	14.19
932.884	14.22
933.312	14.46
933.74	14.68
934.168	14.59
934.596	14.31
935.025	14.09
935.453	14.71
935.881	14.88
936.309	14.51
936.737	14.78
937.165	14.1
937.593	14.51
938.021	14.48
938.449	15.05
938.876	14.43
939.304	15.14
939.732	14.98
940.16	14.52
940.588	15.01
941.015	14.37
941.443	14.8
941.871	14.92
942.298	14.9
942.726	14.58
943.154	15.42
943.581	15.13
944.009	14.82
944.436	14.84
944.864	15.55
945.291	14.59
945.718	14.77
946.146	15
946.573	14.52
947.001	14.85
947.428	15.28
947.855	15.12
948.282	14.68
948.71	14.99
949.137	15.37
949.564	15.49
949.991	15.51
950.418	15.24
950.845	15.76
951.272	15.35
951.699	14.8
952.126	15.43
952.553	15.3
952.98	15.79
953.407	15.46
953.834	15.53
954.261	15.84
954.688	15.53
955.114	15.3
955.541	15.51
955.968	15.31
956.395	15.52
956.821	15.33
957.248	15.49
957.674	15.7
958.101	15.47
958.528	15.48
958.954	15.87
959.381	15.36
959.807	15.57
960.234	15.89
960.66	15.87
961.086	15.46
961.513	15.27
961.939	15.79
962.365	15.66
962.792	15.59
963.218	15.93
963.644	15.42
964.07	15.67
964.496	15.82
964.923	16.03
965.349	16.1
965.775	15.69
966.201	16.05
966.627	15.99
967.053	15.84
967.479	16.03
967.905	15.6
968.331	15.51
968.756	15.96
969.182	15.54
969.608	15.78
970.034	16.1
970.46	15.92
970.885	16.22
971.311	15.5
971.737	16.17
972.162	15.94
972.588	16.37
973.014	16.12
973.439	16.13
973.865	16.13
974.29	15.81
974.716	16.04
975.141	16.1
975.567	16.38
975.992	16
976.417	16.05
976.843	16.24
977.268	16.16
977.693	16.18
978.119	16.47
978.544	16.27
978.969	16.39
979.394	16.82
979.819	16.17
980.244	16.05
980.669	16.33
981.095	16.11
981.52	16.5
981.945	16.66
982.369	16.3
982.794	16.59
983.219	16.73
983.644	16.6
984.069	16.75
984.494	16.22
984.919	16.58
985.343	16.45
985.768	16.66
986.193	16.74
986.618	16.55
987.042	16.65
987.467	16.68
987.891	16.61
988.316	16.47
988.741	16.83
989.165	16.77
989.59	16.86
990.014	16.87
990.438	16.7
990.863	16.98
991.287	17.13
991.712	17.03
992.136	16.99
992.56	16.66
992.984	17
993.409	16.74
993.833	16.89
994.257	17
994.681	16.98
995.105	17.4
995.529	17.24
995.953	17.16
996.377	17.3
996.801	17.23
997.225	16.93
997.649	17.15
998.073	17.24
998.497	17.28
998.921	17.22
999.345	17.63
999.769	17.23
1000.192	17.5
1000.616	17.48
1001.04	17.46
1001.464	17.43
1001.887	17.14
1002.311	17.1
1002.734	17.4
1003.158	17.22
1003.582	17.72
1004.005	17.53
1004.429	17.69
1004.852	17.28
1005.275	17.52
1005.699	17.39
1006.122	17.6
1006.546	17.57
1006.969	17.64
1007.392	17.88
1007.815	18.02
1008.239	17.53
1008.662	17.78
1009.085	17.94
1009.508	17.8
1009.931	17.87
1010.354	17.88
1010.778	18.28
1011.201	17.8
1011.624	17.93
1012.047	17.81
1012.469	18.27
1012.892	18.36
1013.315	17.65
1013.738	17.97
1014.161	17.96
1014.584	18.21
1015.007	18.36
1015.429	17.88
1015.852	18.32
1016.275	18.36
1016.697	17.86
1017.12	18.39
1017.543	18.15
1017.965	18.27
1018.388	18.2
1018.81	18.52
1019.233	18.19
1019.655	18.53
1020.078	18.47
1020.5	18.17
1020.922	18.12
1021.345	18.44
1021.767	18.75
1022.189	18.07
1022.612	18.45
1023.034	18.19
1023.456	18.45
1023.878	18.56
1024.301	18.09
1024.723	18.67
1025.145	19.06
1025.567	18.66
1025.989	18.92
1026.411	18.22
1026.833	18.81
1027.255	18.53
1027.677	18.68
1028.099	18.37
1028.52	18.83
1028.942	18.88
1029.364	19.09
1029.786	19.02
1030.208	19.41
1030.629	18.96
1031.051	19.24
1031.473	19.11
1031.894	19.07
1032.316	18.87
1032.738	19.11
1033.159	19.41
1033.581	19.18
1034.002	18.87
1034.424	19
1034.845	19.37
1035.267	19.28
1035.688	18.96
1036.109	19.45
1036.531	19.72
1036.952	19.04
1037.373	19.22
1037.794	19.53
1038.216	19.39
1038.637	19.81
1039.058	19.97
1039.479	19.17
1039.9	19.92
1040.321	19.45
1040.742	19.61
1041.163	19.78
1041.584	19.16
1042.005	20.14
1042.426	19.58
1042.847	19.83
1043.268	19.32
1043.689	19.92
1044.11	19.96
1044.53	19.44
1044.951	19.69
1045.372	19.98
1045.793	19.61
1046.213	19.65
1046.634	19.64
1047.055	20.24
1047.475	20.07
1047.896	19.9
1048.316	19.67
1048.737	20.43
1049.157	20.32
1049.578	20.13
1049.998	20.68
1050.419	20.64
1050.839	20.07
1051.259	20.16
1051.68	20.09
1052.1	19.97
1052.52	20.42
1052.94	20.56
1053.361	20.56
1053.781	20.37
1054.201	20.03
1054.621	20.78
1055.041	19.69
1055.461	20.55
1055.881	20.84
1056.301	19.92
1056.721	20.28
1057.141	20.28
1057.561	20.39
1057.981	20.94
1058.401	20.15
1058.82	20.92
1059.24	20.26
1059.66	20.94
1060.08	20.25
1060.499	20.44
1060.919	21.07
1061.339	20.69
1061.758	21.16
1062.178	21.23
1062.598	21.52
1063.017	20.89
1063.437	20.98
1063.856	20.94
1064.276	21.3
1064.695	22.1
1065.114	20.92
1065.534	21.63
1065.953	21.3
1066.372	21.29
1066.792	21.96
1067.211	21.39
1067.63	21.13
1068.049	22.17
1068.469	21.71
1068.888	21.33
1069.307	21.55
1069.726	21.51
1070.145	21.57
1070.564	21.09
1070.983	20.55
1071.402	23.22
1071.821	22.01
1072.24	21.45
1072.659	21.41
1073.078	22.84
1073.496	22.23
1073.915	21.74
1074.334	21.83
1074.753	20.88
1075.171	22.43
1075.59	22.2
1076.009	21.91
1076.427	22.1
1076.846	22.35
1077.265	22.55
1077.683	21.91
1078.102	22.45
1078.52	22.54
1078.939	22.15
1079.357	23.17
1079.776	22.39
1080.194	22.4
1080.612	22.46
1081.031	23.14
1081.449	22.11
1081.867	21.28
1082.285	21.29
1082.704	22.66
1083.122	23.26
1083.54	22.46
1083.958	23.17
1084.376	22.77
1084.794	23.32
1085.212	23.33
1085.63	21.9
1086.048	22.62
1086.466	22.8
1086.884	23.21
1087.302	22.09
1087.72	22.09
1088.138	22.02
1088.555	22.77
1088.973	22.74
1089.391	23.46
1089.809	22.12
1090.226	23.95
1090.644	24.16
1091.062	22.68
1091.479	24.68
1091.897	24.31
1092.314	22.33
1092.732	23.42
1093.15	23.44
1093.567	24.45
1093.984	23.25
1094.402	24.01
1094.819	22.87
1095.237	24.2
1095.654	22.46
1096.071	23.77
1096.488	24.09
1096.906	22.68
1097.323	24.15
1097.74	22.38
1098.157	23.03
1098.574	25.99
1098.991	22.8
1099.409	23.64
1099.826	24.09
1100.243	25.4
1100.66	24.2
1101.077	24.36
1101.494	25.64
1101.91	25.23
1102.327	24.07
1102.744	24.81
1103.161	26.58
1103.578	23.43
1103.994	27.95
1104.411	23.54
1104.828	23.42
1105.245	26.63
1105.661	25.26
1106.078	26.38
1106.494	24.97
1106.911	26.38
1107.328	24.3
1107.744	26.07
1108.161	23.65
1108.577	28.52
1108.993	26.31
1109.41	25.68
1109.826	26.24
1110.242	26.17
1110.659	26.59
1111.075	25.53
1111.491	26.2
1111.908	25.98
1112.324	26.51
1112.74	31.64
1113.156	26.85
1113.572	26.68
1113.988	28.7
1114.404	30.7
1114.82	23.06
1115.236	23.96
1115.652	27.68
1116.068	28.02
1116.484	34.16
1116.9	25.73
1117.316	31.84
1117.732	64
1118.147	8.7
1118.563	-200
1118.979	-254.55
