Data from JCR0015_White2_Reflection_00003.txt Node
Date: Thu Jul 23 15:23:07 ACST 2020
User: Stacey Dix
Spectrometer: MAYP113282
Scans to average: 1
Trigger mode: 0
Integration Time (sec): 1.000000E-1
Electric dark correction enabled: true
Boxcar width: 0
XAxis mode: Wavelengths
Number of Pixels in Spectrum: 2068
>>>>>Begin Spectral Data<<<<<
198.791	-1000
199.266	1000
199.74	28.57
200.215	-57.14
200.69	31.33
201.164	29.33
201.639	19.72
202.114	52.48
202.588	76.54
203.063	21.05
203.537	12.9
204.012	49.44
204.486	31.65
204.961	52.87
205.435	4.88
205.909	37.89
206.384	61.22
206.858	43.3
207.332	20.87
207.807	29.7
208.281	54.01
208.755	16.22
209.229	38.17
209.703	37.84
210.177	47.86
210.651	33.58
211.126	2.76
211.6	21.9
212.074	2.76
212.548	44.09
213.021	31.21
213.495	35.77
213.969	18.49
214.443	26.36
214.917	82.27
215.391	39.05
215.864	45.61
216.338	53.55
216.812	50.3
217.286	45.77
217.759	33.48
218.233	50.35
218.706	50.87
219.18	38.63
219.654	48.24
220.127	47.21
220.6	45.16
221.074	63.6
221.547	57.14
222.021	49.35
222.494	70.48
222.967	41.88
223.441	64.19
223.914	74.58
224.387	66.67
224.86	54.83
225.334	55.91
225.807	64.26
226.28	52.66
226.753	63.13
227.226	59.19
227.699	58.28
228.172	68.68
228.645	48.77
229.118	68.65
229.591	66.44
230.064	58.73
230.537	69.95
231.01	54.28
231.482	67.84
231.955	59.06
232.428	62.32
232.901	70.6
233.373	66.51
233.846	63.59
234.319	63.61
234.791	62.66
235.264	69.38
235.736	60.86
236.209	62.38
236.681	63.68
237.154	59.15
237.626	64.26
238.099	59.21
238.571	61.11
239.044	56.19
239.516	62.25
239.988	58.13
240.46	60.57
240.933	59.88
241.405	62.25
241.877	57.74
242.349	59.47
242.821	63.01
243.293	60.79
243.765	56.39
244.237	60.48
244.71	53.53
245.181	56.56
245.653	58.57
246.125	56.75
246.597	60.72
247.069	54.11
247.541	58.07
248.013	50.92
248.485	53.22
248.956	54.66
249.428	49.52
249.9	50.46
250.371	49.87
250.843	54.55
251.315	52.26
251.786	50.02
252.258	52.65
252.729	54.52
253.201	52.24
253.672	50.6
254.144	49.49
254.615	50.68
255.086	51.05
255.558	48.87
256.029	50.74
256.5	54.81
256.972	51.8
257.443	52.05
257.914	54.44
258.385	50.93
258.856	50.91
259.327	52.92
259.799	51.6
260.27	54.07
260.741	51.75
261.212	49.04
261.683	51.88
262.154	54.21
262.624	52.07
263.095	50.56
263.566	49.51
264.037	50.54
264.508	54.3
264.979	50.09
265.449	50.94
265.92	51.16
266.391	52.06
266.861	50.58
267.332	49.33
267.803	54.59
268.273	50.9
268.744	52
269.214	51.05
269.685	50.87
270.155	48.64
270.626	48.38
271.096	49.84
271.566	52.61
272.037	54.83
272.507	51.92
272.977	54.37
273.448	54.54
273.918	51.99
274.388	52.88
274.858	52.06
275.328	53.25
275.798	50.23
276.268	48.58
276.738	52.89
277.208	49.31
277.678	50.42
278.148	52.44
278.618	47.53
279.088	47.64
279.558	55.21
280.028	52.56
280.498	49.6
280.968	46.93
281.437	52.49
281.907	49.08
282.377	50.69
282.847	48.77
283.316	47.34
283.786	49.04
284.255	49.51
284.725	49.94
285.194	49.21
285.664	48.79
286.133	48.9
286.603	48.52
287.072	50.43
287.542	49.44
288.011	49.94
288.48	52.72
288.95	48.52
289.419	49.8
289.888	48.33
290.357	51.63
290.827	51.55
291.296	48.45
291.765	49.21
292.234	48.74
292.703	49.54
293.172	49.27
293.641	48.02
294.11	48.51
294.579	52.2
295.048	45.88
295.517	49.71
295.986	45.51
296.455	48.87
296.923	44.92
297.392	46.8
297.861	43.98
298.33	45.18
298.798	45.9
299.267	49.98
299.736	48.52
300.204	47.32
300.673	46.2
301.141	45.99
301.61	44.32
302.079	47.18
302.547	45.29
303.015	48.35
303.484	46.34
303.952	46.09
304.421	44.31
304.889	43.46
305.357	45.42
305.825	45.71
306.294	46.42
306.762	43.61
307.23	42.87
307.698	42.42
308.166	43.42
308.634	43.51
309.103	45.82
309.571	46.35
310.039	46.15
310.507	44.4
310.975	40.93
311.442	44.18
311.91	43.64
312.378	44.78
312.846	43.8
313.314	42.82
313.782	42.72
314.249	40.49
314.717	42.62
315.185	42.63
315.652	39.75
316.12	40.62
316.588	42.8
317.055	38.59
317.523	41.17
317.99	40.46
318.458	41.77
318.925	40.28
319.393	41
319.86	39.96
320.328	41.34
320.795	38.21
321.262	38.37
321.73	40.39
322.197	40.77
322.664	40.39
323.131	40.63
323.598	40.13
324.066	39.96
324.533	39.26
325	39.93
325.467	41.42
325.934	39.58
326.401	43.74
326.868	42.59
327.335	41.71
327.802	41.15
328.269	42.23
328.735	43.03
329.202	40.44
329.669	43.63
330.136	44.18
330.603	44.62
331.069	44.19
331.536	46.81
332.003	47.69
332.469	45.69
332.936	46.32
333.402	45.11
333.869	46.25
334.336	43.85
334.802	45.93
335.268	45.8
335.735	48.51
336.201	45.64
336.668	47.06
337.134	47.16
337.6	46.44
338.067	45.77
338.533	46.3
338.999	42.93
339.465	45.03
339.931	45.46
340.398	46.66
340.864	45.07
341.33	46.11
341.796	45.36
342.262	46.09
342.728	46.24
343.194	47.08
343.66	44.18
344.126	45.34
344.592	44.15
345.057	45.96
345.523	44.06
345.989	41.06
346.455	46.22
346.921	41.63
347.386	43.45
347.852	42.99
348.318	42.34
348.783	42.28
349.249	44.81
349.714	43.24
350.18	42.02
350.645	43.01
351.111	44.67
351.576	43.47
352.042	42.5
352.507	40.07
352.973	41.42
353.438	43.26
353.903	44.26
354.369	43.19
354.834	41.21
355.299	43.09
355.764	42.55
356.229	40.98
356.695	40.38
357.16	40.54
357.625	40.38
358.09	42.48
358.555	41.7
359.02	42.61
359.485	42.63
359.95	40.74
360.415	40.11
360.879	44.98
361.344	41.07
361.809	42.06
362.274	41.38
362.739	42
363.203	40.62
363.668	40.92
364.133	39.76
364.597	38.76
365.062	40.54
365.527	40.71
365.991	36.97
366.456	38.86
366.92	39.73
367.385	38.5
367.849	39.27
368.314	38.33
368.778	39
369.242	37.82
369.707	37.87
370.171	37.89
370.635	37.48
371.1	38.06
371.564	39.63
372.028	38.06
372.492	37.76
372.956	36.15
373.42	37.21
373.884	38.86
374.348	37.57
374.812	35.02
375.276	35.47
375.74	35.9
376.204	36.94
376.668	37.4
377.132	36.62
377.596	38.22
378.06	36.99
378.524	35.43
378.987	36.54
379.451	35.72
379.915	35.18
380.378	37.29
380.842	35.69
381.306	35.59
381.769	35.48
382.233	37.1
382.696	36.86
383.16	36.48
383.623	36.46
384.087	35.54
384.55	37.13
385.014	36.21
385.477	35.24
385.94	34.26
386.404	35.33
386.867	38.01
387.33	35.13
387.793	35.51
388.256	34.83
388.72	33.42
389.183	34.75
389.646	35.76
390.109	33.23
390.572	34.16
391.035	33.14
391.498	37.61
391.961	33.99
392.424	33.54
392.887	35.04
393.35	34.15
393.812	35.58
394.275	32.28
394.738	33.45
395.201	36.05
395.664	35.19
396.126	33.73
396.589	33.03
397.052	34.44
397.514	33.89
397.977	30.68
398.439	34.23
398.902	33.03
399.364	34.6
399.827	32.04
400.289	33.58
400.752	32.88
401.214	32.09
401.676	31.75
402.139	32.67
402.601	33.59
403.063	31
403.525	33
403.988	32.38
404.45	33.1
404.912	31.24
405.374	34.37
405.836	30.63
406.298	33.87
406.76	33.3
407.222	32.61
407.684	34.25
408.146	31.83
408.608	31.88
409.07	32.28
409.532	30.75
409.994	30.82
410.456	31.44
410.917	32.75
411.379	31.16
411.841	29.91
412.303	32.11
412.764	31.01
413.226	32.11
413.687	30.74
414.149	31.65
414.611	30.67
415.072	32.07
415.534	31.14
415.995	31.32
416.457	30.95
416.918	32.6
417.379	30.61
417.841	30.02
418.302	30.96
418.763	32.24
419.225	30.07
419.686	30.61
420.147	29.85
420.608	28.96
421.069	31.64
421.53	28.57
421.991	30.96
422.453	32.25
422.914	31.83
423.375	31.85
423.836	33.28
424.297	30.19
424.757	34.12
425.218	30.56
425.679	31.9
426.14	30.57
426.601	30.76
427.062	29.78
427.522	32.17
427.983	29.6
428.444	31.1
428.904	30.48
429.365	31.06
429.826	30.63
430.286	29.23
430.747	31.76
431.207	30.16
431.668	30.17
432.128	28.21
432.589	29.36
433.049	29.77
433.509	31.54
433.97	26.87
434.43	27.14
434.89	28.27
435.351	29.04
435.811	30.37
436.271	29.31
436.731	31.03
437.191	29.24
437.651	31
438.112	31.62
438.572	31.41
439.032	30.07
439.492	28.97
439.952	30.66
440.412	29.84
440.871	31.15
441.331	29.54
441.791	30.04
442.251	31.23
442.711	28.79
443.171	31.24
443.63	30
444.09	34.6
444.55	27.92
445.009	31.12
445.469	28.06
445.929	27.33
446.388	30.09
446.848	30.48
447.307	29.07
447.767	30.08
448.226	26.71
448.686	27.25
449.145	28.95
449.604	28.24
450.064	30.89
450.523	30.32
450.982	29.28
451.442	33.01
451.901	30.51
452.36	28.2
452.819	30.11
453.278	31
453.737	32.05
454.197	31
454.656	29.4
455.115	31.23
455.574	31.02
456.033	28.84
456.492	31.56
456.95	29.12
457.409	28.57
457.868	30.11
458.327	30.48
458.786	30.37
459.245	30.46
459.703	28.91
460.162	29.78
460.621	27.93
461.079	31.82
461.538	30.72
461.997	33.04
462.455	27.49
462.914	32.79
463.372	32.37
463.831	27.09
464.289	31
464.748	31.18
465.206	29.41
465.664	32.58
466.123	32.43
466.581	28.65
467.039	31.87
467.497	31.35
467.956	30.11
468.414	33.84
468.872	30.77
469.33	31.04
469.788	29.98
470.246	30.09
470.704	31.68
471.162	33.01
471.62	31.22
472.078	29.71
472.536	33.24
472.994	30.05
473.452	31.77
473.91	32.87
474.368	32.64
474.826	29.85
475.283	30.12
475.741	32.66
476.199	33.17
476.656	28.59
477.114	32.18
477.572	33.72
478.029	32.18
478.487	32.81
478.944	32.43
479.402	29.37
479.859	34.32
480.317	32.53
480.774	31.77
481.232	32.34
481.689	32.53
482.146	33.88
482.604	33.04
483.061	33.39
483.518	33.24
483.975	32.25
484.433	28.06
484.89	32.05
485.347	36.1
485.804	33.5
486.261	35.6
486.718	31.67
487.175	28.18
487.632	32.58
488.089	34.72
488.546	33
489.003	30.43
489.46	30.57
489.917	32.65
490.373	33.74
490.83	31.22
491.287	31.48
491.744	31.71
492.2	31.78
492.657	35
493.114	31.89
493.57	32.74
494.027	33.91
494.484	32.06
494.94	32.48
495.397	33.39
495.853	34.98
496.31	33.9
496.766	33.49
497.222	33.39
497.679	34.05
498.135	32.48
498.591	34.52
499.048	33.01
499.504	34.55
499.96	32.87
500.416	32.08
500.872	33.28
501.329	33.73
501.785	33.53
502.241	32.56
502.697	34.39
503.153	36.38
503.609	34.19
504.065	32.05
504.521	32.3
504.977	32.08
505.432	33.57
505.888	35.57
506.344	35.7
506.8	30.39
507.256	35.49
507.711	33.62
508.167	37.55
508.623	36.49
509.078	34.02
509.534	35.66
509.99	33.88
510.445	32.47
510.901	33.46
511.356	36.36
511.812	35.34
512.267	33.24
512.722	34.63
513.178	34.61
513.633	33.5
514.089	31.89
514.544	34.97
514.999	34.54
515.454	33.81
515.91	36.29
516.365	35.43
516.82	33.91
517.275	33.37
517.73	32.15
518.185	33.79
518.64	32.39
519.095	33.89
519.55	35.91
520.005	35.14
520.46	35.63
520.915	33.52
521.37	34.24
521.825	38.01
522.28	38.01
522.734	35.58
523.189	34.3
523.644	33.59
524.099	33.78
524.553	35.13
525.008	33.59
525.462	35.01
525.917	35.83
526.372	33.42
526.826	34.81
527.281	35.5
527.735	33.22
528.19	33.79
528.644	33.04
529.098	33.2
529.553	35.16
530.007	34.37
530.461	34.9
530.916	36.9
531.37	34.67
531.824	36.12
532.278	32.61
532.732	33.53
533.186	35.05
533.641	32.41
534.095	35.11
534.549	32.61
535.003	35.95
535.457	36.02
535.911	34.37
536.365	34.79
536.818	33.93
537.272	35.57
537.726	33.43
538.18	34.47
538.634	35.23
539.087	32.48
539.541	34.65
539.995	34.22
540.449	35.92
540.902	29.67
541.356	36.65
541.809	35.46
542.263	31.55
542.716	32.68
543.17	35.35
543.623	33.65
544.077	33.12
544.53	34.08
544.984	34.93
545.437	33.57
545.89	35.22
546.344	35.17
546.797	34
547.25	34.72
547.703	33.35
548.157	33.64
548.61	32.87
549.063	32
549.516	33.12
549.969	36.51
550.422	34.32
550.875	33.1
551.328	33.08
551.781	34.01
552.234	32.73
552.687	33.15
553.14	34.84
553.592	36.45
554.045	33.94
554.498	34.16
554.951	35.94
555.404	34
555.856	33.66
556.309	33.96
556.762	36.3
557.214	37.42
557.667	33.6
558.119	35.26
558.572	35.86
559.024	39.02
559.477	34.34
559.929	32.95
560.382	33.69
560.834	33.46
561.286	33.55
561.739	35.18
562.191	33.78
562.643	35.73
563.095	37.1
563.548	35.52
564	35.08
564.452	34.69
564.904	36.19
565.356	37.01
565.808	35.32
566.26	35.83
566.712	36.8
567.164	35.48
567.616	34.68
568.068	33.83
568.52	32.77
568.972	36.1
569.424	35.74
569.876	36.32
570.327	34.86
570.779	36.8
571.231	33.64
571.682	34.59
572.134	35
572.586	33.09
573.037	35.5
573.489	36.67
573.941	35.72
574.392	33.98
574.844	35.35
575.295	37.89
575.746	34.98
576.198	36.64
576.649	36.39
577.101	35.39
577.552	38.27
578.003	35.61
578.454	34.13
578.906	35.47
579.357	36.61
579.808	37.66
580.259	35.71
580.71	35.11
581.161	34.92
581.612	36.53
582.064	35.49
582.515	35.13
582.965	35.17
583.416	37.44
583.867	36.32
584.318	35.05
584.769	37.28
585.22	34.9
585.671	35.66
586.122	35.79
586.572	36.42
587.023	34.17
587.474	36.53
587.924	34.85
588.375	36.36
588.826	36.52
589.276	34.98
589.727	36.08
590.177	36.2
590.628	36.27
591.078	37.61
591.529	37.1
591.979	38
592.429	36.92
592.88	36.36
593.33	37.23
593.78	36.69
594.231	37.84
594.681	36.12
595.131	36.08
595.581	35.22
596.031	37.14
596.481	35.96
596.932	34.9
597.382	37.16
597.832	36.16
598.282	38.65
598.732	36.53
599.182	35.69
599.632	38.33
600.081	36.55
600.531	38.43
600.981	36.05
601.431	36.05
601.881	36.19
602.33	36.04
602.78	36.46
603.23	36.1
603.679	36.09
604.129	35.02
604.579	36.97
605.028	36.97
605.478	35
605.927	37.07
606.377	35.49
606.826	37.63
607.276	36.26
607.725	38.41
608.175	37.27
608.624	36.9
609.073	35.45
609.522	36.57
609.972	36.41
610.421	36.84
610.87	35.72
611.319	35.86
611.768	36.94
612.218	37.66
612.667	38.05
613.116	37.11
613.565	35.57
614.014	35.44
614.463	36.55
614.912	36.87
615.361	35.54
615.81	36.9
616.258	36.79
616.707	37.98
617.156	38.15
617.605	37.02
618.054	37.64
618.502	37.43
618.951	35.87
619.4	38.18
619.848	38.19
620.297	37.61
620.745	37.16
621.194	35.85
621.642	36.66
622.091	36.86
622.539	37.99
622.988	36.74
623.436	37.34
623.885	37.06
624.333	37.66
624.781	36.42
625.23	37.81
625.678	36.78
626.126	35.76
626.574	38.46
627.022	38.37
627.471	36.66
627.919	37.12
628.367	37.85
628.815	36.61
629.263	36.62
629.711	38.11
630.159	37.63
630.607	36.75
631.055	38.42
631.503	37.62
631.95	39.31
632.398	38.91
632.846	37.9
633.294	37.89
633.742	37.04
634.189	36.44
634.637	37.95
635.085	37.83
635.532	38.07
635.98	37.89
636.427	37.36
636.875	39.05
637.323	37.22
637.77	37.32
638.217	37.63
638.665	37.77
639.112	35.95
639.56	37.74
640.007	38.14
640.454	37.34
640.902	38.56
641.349	38.16
641.796	36.81
642.243	37.24
642.69	37.69
643.138	38.09
643.585	38.69
644.032	37.2
644.479	37.99
644.926	36.93
645.373	37.93
645.82	38.42
646.267	38.19
646.714	38.18
647.161	37.63
647.607	37.3
648.054	38.33
648.501	39.09
648.948	39.34
649.395	37.74
649.841	36.94
650.288	39.11
650.735	38.52
651.181	38.05
651.628	37.94
652.075	37.51
652.521	39.16
652.968	38.13
653.414	39.15
653.861	39.01
654.307	37.93
654.753	38.86
655.2	37.53
655.646	38.52
656.092	38.15
656.539	37.8
656.985	38.58
657.431	38.39
657.877	38.18
658.324	38.73
658.77	37.12
659.216	38.17
659.662	37.47
660.108	37.52
660.554	39.18
661	37.58
661.446	37.13
661.892	37.23
662.338	40.3
662.784	37.62
663.23	38.42
663.675	38.72
664.121	38.91
664.567	38.21
665.013	39.32
665.458	37.93
665.904	38.49
666.35	37.87
666.795	37.96
667.241	39.19
667.687	38.64
668.132	38.54
668.578	39.37
669.023	38.47
669.469	38.93
669.914	38.42
670.359	38.25
670.805	38.48
671.25	38.19
671.695	38.1
672.141	38.05
672.586	40.16
673.031	38.07
673.476	38.41
673.922	37.74
674.367	38.16
674.812	39.05
675.257	37.1
675.702	38.01
676.147	38.57
676.592	37.51
677.037	38.4
677.482	38.59
677.927	39.45
678.372	38.8
678.817	39.32
679.261	40.48
679.706	40.3
680.151	39.63
680.596	38.49
681.04	38.9
681.485	38.31
681.93	39.63
682.374	40
682.819	38.23
683.264	38.64
683.708	38.91
684.153	39.74
684.597	39.32
685.042	38.42
685.486	39.44
685.93	39.4
686.375	38.73
686.819	38.39
687.263	38.64
687.708	39.53
688.152	40.01
688.596	39.44
689.04	39.51
689.485	39.75
689.929	38.71
690.373	40.11
690.817	38.02
691.261	39.48
691.705	38.81
692.149	39.36
692.593	39.29
693.037	39.43
693.481	39.51
693.925	39.5
694.369	39.69
694.812	39.48
695.256	39.49
695.7	38.75
696.144	38.9
696.587	39.24
697.031	40.08
697.475	38.57
697.918	40.05
698.362	39.45
698.806	39.14
699.249	39.18
699.693	39.48
700.136	38.25
700.58	39.73
701.023	38.56
701.466	40.02
701.91	38.81
702.353	39
702.796	40.5
703.24	39.82
703.683	38.89
704.126	39.87
704.569	39.6
705.013	38.88
705.456	39.55
705.899	39.15
706.342	40.06
706.785	38.73
707.228	40.07
707.671	39.41
708.114	39.09
708.557	39.84
709	39.24
709.443	39.03
709.886	39.32
710.328	39.78
710.771	39.9
711.214	39.59
711.657	39.11
712.099	39.66
712.542	39.48
712.985	40.04
713.427	39.28
713.87	39.95
714.313	39.48
714.755	38.96
715.198	39.58
715.64	39.73
716.083	39.63
716.525	40.03
716.967	41.02
717.41	39.59
717.852	39.94
718.295	38.04
718.737	40.08
719.179	41.05
719.621	39.82
720.063	39.81
720.506	41.44
720.948	39.8
721.39	39.44
721.832	39.75
722.274	40.35
722.716	38.34
723.158	40.67
723.6	39.49
724.042	40.07
724.484	41.1
724.926	40.4
725.368	40.52
725.81	40.54
726.251	40.11
726.693	39.15
727.135	40.69
727.577	40.97
728.018	39.62
728.46	40.4
728.902	39.02
729.343	39.89
729.785	39.77
730.226	40.1
730.668	39.17
731.109	39.92
731.551	40.09
731.992	39.67
732.434	40.92
732.875	39.04
733.316	40.74
733.758	39.17
734.199	39.47
734.64	40.02
735.081	40.54
735.523	39.52
735.964	41.47
736.405	40.56
736.846	39.85
737.287	40.28
737.728	39.8
738.169	39.26
738.61	39.95
739.051	39.72
739.492	40.09
739.933	41.92
740.374	39.61
740.815	40.69
741.256	38.96
741.696	41.52
742.137	40.7
742.578	40.02
743.019	39.87
743.459	41.48
743.9	41.43
744.341	40.5
744.781	40.91
745.222	41.63
745.662	41.05
746.103	40.67
746.543	40.7
746.984	39.19
747.424	40.77
747.865	41.49
748.305	39.95
748.745	40.18
749.186	39.84
749.626	39.63
750.066	40.14
750.506	40.65
750.947	40.73
751.387	40.75
751.827	40.13
752.267	40.44
752.707	39.68
753.147	40.35
753.587	40.74
754.027	41.13
754.467	41.71
754.907	40.26
755.347	40.75
755.787	40.86
756.227	40.4
756.667	41.65
757.107	40.81
757.546	40.89
757.986	40.55
758.426	41.08
758.865	41.32
759.305	40.98
759.745	40.8
760.184	41.4
760.624	41.2
761.063	41.96
761.503	41.56
761.943	41.71
762.382	40.65
762.821	41.91
763.261	40.43
763.7	41.5
764.14	42.48
764.579	41.95
765.018	40.06
765.457	40.58
765.897	41.78
766.336	39.97
766.775	40.98
767.214	42.14
767.653	40.4
768.092	41.37
768.531	39.82
768.97	41.1
769.409	42.5
769.848	41.26
770.287	41.85
770.726	41.31
771.165	42.08
771.604	41.96
772.043	40.9
772.482	41.22
772.92	41.28
773.359	41.48
773.798	41.44
774.237	41.16
774.675	42.33
775.114	41.83
775.553	41.99
775.991	42.52
776.43	42.62
776.868	41.77
777.307	41.55
777.745	41.88
778.184	42.59
778.622	42.63
779.06	42.13
779.499	42.15
779.937	41.23
780.375	41.28
780.814	41.37
781.252	42.03
781.69	42.51
782.128	42.23
782.566	41.26
783.004	41.96
783.443	41.38
783.881	41.68
784.319	42.18
784.757	42.55
785.195	42.71
785.633	42.07
786.071	41.92
786.508	41.46
786.946	42.25
787.384	42.69
787.822	42.76
788.26	42.2
788.697	41.89
789.135	41.96
789.573	42.29
790.011	41.67
790.448	42.12
790.886	41.92
791.323	42.08
791.761	42.95
792.198	41.96
792.636	42.08
793.073	42.12
793.511	42.07
793.948	43.54
794.386	43.04
794.823	42.95
795.26	42.34
795.698	42.68
796.135	42.92
796.572	42.27
797.009	42.83
797.446	42.34
797.884	42.74
798.321	43.53
798.758	42.76
799.195	41.56
799.632	42.94
800.069	41.89
800.506	42.78
800.943	42.58
801.38	43.43
801.817	42.66
802.254	42.44
802.69	44.58
803.127	43.54
803.564	41.87
804.001	42.58
804.438	43.67
804.874	42.77
805.311	43.19
805.748	43.66
806.184	43.78
806.621	43.18
807.057	42.97
807.494	42.73
807.93	42.98
808.367	43.12
808.803	43.15
809.24	43.53
809.676	42.51
810.112	42.99
810.549	43.15
810.985	44.08
811.421	43.99
811.857	42.16
812.294	43.29
812.73	43.21
813.166	43.41
813.602	43.58
814.038	42.8
814.474	43.04
814.91	43.56
815.346	42.86
815.782	42.81
816.218	43.23
816.654	43.45
817.09	42.91
817.526	43.21
817.962	43.02
818.398	43.54
818.833	44.06
819.269	43.9
819.705	43.43
820.141	44.06
820.576	44.01
821.012	43.05
821.447	44.71
821.883	44.78
822.319	44.66
822.754	44.72
823.19	44.15
823.625	43.86
824.061	43.18
824.496	43.73
824.931	43.19
825.367	44.7
825.802	43.49
826.237	44.08
826.673	43.51
827.108	44.61
827.543	44.46
827.978	44.83
828.413	44.85
828.849	44.61
829.284	44.47
829.719	44.11
830.154	44.27
830.589	44.76
831.024	43.91
831.459	44.69
831.894	44.64
832.329	44.19
832.763	45.11
833.198	44.02
833.633	44.98
834.068	43.39
834.503	45.07
834.937	44.88
835.372	45.35
835.807	45.43
836.241	44.27
836.676	45.04
837.111	43.64
837.545	44.92
837.98	44.51
838.414	44.42
838.849	44.37
839.283	44.88
839.717	45.34
840.152	45.49
840.586	45.52
841.021	44.3
841.455	44.87
841.889	44.81
842.323	44.12
842.758	45.23
843.192	45.06
843.626	44.84
844.06	45.22
844.494	45
844.928	44.47
845.362	44.47
845.796	44.88
846.23	44.91
846.664	45.19
847.098	45.17
847.532	44.93
847.966	45.4
848.4	45.68
848.834	44.86
849.267	43.91
849.701	45.34
850.135	44.91
850.569	45.47
851.002	45.3
851.436	45.62
851.87	44.99
852.303	45.91
852.737	44.51
853.17	45.64
853.604	45.02
854.037	45.16
854.471	46.33
854.904	45.86
855.337	45.57
855.771	46.24
856.204	44.76
856.637	45.02
857.071	45.54
857.504	45.93
857.937	45.5
858.37	45.78
858.804	45.06
859.237	46.25
859.67	46.02
860.103	46.1
860.536	46.03
860.969	46.34
861.402	46.17
861.835	46.39
862.268	45.49
862.701	45.92
863.134	45.85
863.566	46.01
863.999	45.92
864.432	46.53
864.865	45.78
865.298	47.06
865.73	46.14
866.163	46.24
866.596	45.99
867.028	46.77
867.461	45.76
867.893	45.39
868.326	45.82
868.758	45.72
869.191	47.13
869.623	46.04
870.056	46.79
870.488	46.53
870.92	46.45
871.353	46.4
871.785	46.26
872.217	46.88
872.65	45.73
873.082	47
873.514	46.91
873.946	46.71
874.378	46.16
874.81	46.2
875.243	46.19
875.675	45.9
876.107	46.82
876.539	46.68
876.971	46.52
877.403	46.89
877.834	47.02
878.266	47.09
878.698	46.71
879.13	47.3
879.562	46.8
879.994	46.61
880.425	47.09
880.857	46.54
881.289	47.28
881.72	46.23
882.152	47.39
882.584	46.92
883.015	46.86
883.447	46.91
883.878	47.44
884.31	46.48
884.741	47.86
885.173	47.5
885.604	47.89
886.035	46.3
886.467	47.13
886.898	47.1
887.329	47.08
887.76	47.8
888.192	46.95
888.623	47.87
889.054	47.17
889.485	47.52
889.916	47.11
890.347	47.8
890.778	47.34
891.209	47.41
891.64	47.75
892.071	46.81
892.502	47.26
892.933	47.17
893.364	46.99
893.795	47.66
894.226	47.53
894.657	47.04
895.087	47.67
895.518	47.41
895.949	47.8
896.38	48.16
896.81	47.28
897.241	47.8
897.671	47.43
898.102	47.89
898.533	47.63
898.963	48.52
899.394	48.22
899.824	47.77
900.254	47.95
900.685	47.54
901.115	48.48
901.546	47.67
901.976	48.2
902.406	48.9
902.836	47.93
903.267	48.07
903.697	48.69
904.127	48.52
904.557	48.07
904.987	48.02
905.417	47.72
905.847	48.76
906.277	48.13
906.707	49.11
907.137	48.42
907.567	48.03
907.997	48.87
908.427	49.03
908.857	49.29
909.287	48.37
909.717	48.97
910.146	48.33
910.576	48.45
911.006	49.07
911.436	48.26
911.865	48
912.295	48.42
912.724	48.91
913.154	48
913.584	48.9
914.013	47.92
914.443	49.05
914.872	49.41
915.302	48.58
915.731	49.23
916.16	48.5
916.59	48.57
917.019	48.31
917.448	49.02
917.878	49.31
918.307	48.65
918.736	48.69
919.165	47.93
919.594	48.91
920.023	48.18
920.452	49.37
920.882	48.74
921.311	48.77
921.74	49.93
922.169	49.28
922.597	49.53
923.026	48.68
923.455	49.35
923.884	48.7
924.313	50.09
924.742	49.44
925.171	49.51
925.599	49.58
926.028	49.47
926.457	49.58
926.885	48.92
927.314	49.3
927.743	49.19
928.171	49.82
928.6	48.81
929.028	49.03
929.457	50.37
929.885	49.31
930.314	49.37
930.742	49.7
931.17	50.04
931.599	50.03
932.027	49.21
932.455	49.24
932.884	49.18
933.312	49.71
933.74	50.19
934.168	49.04
934.596	49.41
935.025	49.22
935.453	50.36
935.881	49.58
936.309	48.36
936.737	49.27
937.165	49.6
937.593	49.72
938.021	49.51
938.449	48.84
938.876	49.66
939.304	49.05
939.732	49.29
940.16	49.47
940.588	48.56
941.015	49.45
941.443	49.09
941.871	50.06
942.298	48.93
942.726	49.69
943.154	49.59
943.581	49.46
944.009	49.6
944.436	50.4
944.864	50.22
945.291	50.12
945.718	50.21
946.146	50.5
946.573	50.66
947.001	50.45
947.428	49.99
947.855	50.36
948.282	51.24
948.71	51.08
949.137	50.94
949.564	50.22
949.991	50.7
950.418	50.65
950.845	49.94
951.272	51.08
951.699	50.52
952.126	50.86
952.553	51.26
952.98	50.52
953.407	51.58
953.834	51.6
954.261	50.89
954.688	51.07
955.114	50.98
955.541	50.38
955.968	51.6
956.395	50.91
956.821	49.97
957.248	50.9
957.674	51.09
958.101	50.5
958.528	51.25
958.954	51.1
959.381	50.23
959.807	51.5
960.234	51.13
960.66	50.36
961.086	50.75
961.513	51.7
961.939	50.94
962.365	50.78
962.792	51.71
963.218	51.45
963.644	51.26
964.07	51.32
964.496	50.86
964.923	51.6
965.349	51.16
965.775	50.92
966.201	50.99
966.627	50.65
967.053	51.06
967.479	50.88
967.905	51.41
968.331	51.19
968.756	51.72
969.182	50.62
969.608	51.03
970.034	51.39
970.46	51.21
970.885	51.6
971.311	51.47
971.737	52.07
972.162	51.96
972.588	52.26
973.014	51.15
973.439	51.37
973.865	51.15
974.29	51.62
974.716	51.46
975.141	50.98
975.567	51.78
975.992	51.77
976.417	52.15
976.843	51.74
977.268	51.7
977.693	51.37
978.119	51.21
978.544	51.28
978.969	51.8
979.394	52.24
979.819	51.93
980.244	51.34
980.669	51.66
981.095	51.31
981.52	52.44
981.945	51.17
982.369	52.62
982.794	51.65
983.219	51.93
983.644	51.98
984.069	52.22
984.494	51.42
984.919	51.46
985.343	52.47
985.768	51.88
986.193	51.78
986.618	51.63
987.042	52.11
987.467	52.58
987.891	52.83
988.316	52.38
988.741	52.38
989.165	52.46
989.59	52.37
990.014	52.26
990.438	51.74
990.863	52.62
991.287	51.99
991.712	52.34
992.136	52.56
992.56	52.72
992.984	52.61
993.409	51.97
993.833	52.28
994.257	52.67
994.681	52.52
995.105	52.63
995.529	52.23
995.953	52.65
996.377	52.53
996.801	52.67
997.225	53.46
997.649	53.18
998.073	53.38
998.497	53.34
998.921	53.08
999.345	52.83
999.769	53.05
1000.192	53.48
1000.616	53.02
1001.04	52.93
1001.464	53.44
1001.887	53.96
1002.311	52.88
1002.734	53.19
1003.158	53.4
1003.582	53.32
1004.005	52.57
1004.429	53.32
1004.852	54
1005.275	52.72
1005.699	53.61
1006.122	53.19
1006.546	53.59
1006.969	53.55
1007.392	53.8
1007.815	53.72
1008.239	53.08
1008.662	53.73
1009.085	53.54
1009.508	53.58
1009.931	53.34
1010.354	52.72
1010.778	53.1
1011.201	53.74
1011.624	54.04
1012.047	53.33
1012.469	53.97
1012.892	53.98
1013.315	53.67
1013.738	53.22
1014.161	53.91
1014.584	53.89
1015.007	54.23
1015.429	54.06
1015.852	53.4
1016.275	53.69
1016.697	53.64
1017.12	54.79
1017.543	53.75
1017.965	53.63
1018.388	54.33
1018.81	54.48
1019.233	53.77
1019.655	54.31
1020.078	54.1
1020.5	53.29
1020.922	54.09
1021.345	54.55
1021.767	54.47
1022.189	54.08
1022.612	53.53
1023.034	54.45
1023.456	53.64
1023.878	53.81
1024.301	53.84
1024.723	54.01
1025.145	55.19
1025.567	53.75
1025.989	53.77
1026.411	54
1026.833	54.44
1027.255	55
1027.677	54.2
1028.099	54.1
1028.52	53.81
1028.942	54.57
1029.364	53.62
1029.786	54.04
1030.208	54.79
1030.629	54.26
1031.051	53.96
1031.473	54.65
1031.894	53.92
1032.316	55.29
1032.738	54.53
1033.159	54.06
1033.581	54.47
1034.002	53.76
1034.424	54.55
1034.845	55.47
1035.267	55.98
1035.688	54.96
1036.109	54.18
1036.531	54.28
1036.952	54.63
1037.373	54.5
1037.794	54.74
1038.216	55.77
1038.637	54.28
1039.058	55.04
1039.479	54.94
1039.9	54.89
1040.321	54.7
1040.742	55.17
1041.163	55.21
1041.584	54.44
1042.005	54.84
1042.426	55.19
1042.847	54.86
1043.268	55.32
1043.689	54.17
1044.11	55.41
1044.53	55.14
1044.951	54.67
1045.372	54.24
1045.793	55.86
1046.213	55.3
1046.634	55.19
1047.055	54.43
1047.475	54.15
1047.896	55.01
1048.316	55.72
1048.737	55.88
1049.157	55.36
1049.578	55.29
1049.998	54.78
1050.419	54.97
1050.839	56.43
1051.259	55.64
1051.68	55.62
1052.1	55.58
1052.52	54.98
1052.94	56.07
1053.361	55.16
1053.781	55.12
1054.201	54.91
1054.621	55.53
1055.041	56.74
1055.461	56.14
1055.881	55.5
1056.301	54.91
1056.721	54.41
1057.141	55.56
1057.561	55.21
1057.981	56.12
1058.401	56.37
1058.82	55.7
1059.24	54.34
1059.66	55.5
1060.08	56.18
1060.499	56.21
1060.919	55.78
1061.339	55.33
1061.758	55.48
1062.178	55.59
1062.598	55.35
1063.017	56.12
1063.437	55.53
1063.856	55.92
1064.276	55.77
1064.695	55.67
1065.114	55.96
1065.534	54.82
1065.953	57.04
1066.372	57.12
1066.792	56.31
1067.211	57.03
1067.63	55.92
1068.049	54.35
1068.469	56.47
1068.888	56.49
1069.307	55.71
1069.726	55.48
1070.145	55.91
1070.564	55.09
1070.983	56.06
1071.402	57.21
1071.821	55.87
1072.24	57.44
1072.659	55.28
1073.078	55.52
1073.496	54.9
1073.915	57.08
1074.334	54.8
1074.753	54.93
1075.171	55.72
1075.59	56.19
1076.009	58.53
1076.427	53.02
1076.846	56.04
1077.265	55.15
1077.683	54.49
1078.102	57.19
1078.52	55.32
1078.939	55.91
1079.357	56.92
1079.776	56.85
1080.194	57.59
1080.612	57.41
1081.031	55.33
1081.449	55.46
1081.867	54.15
1082.285	55.34
1082.704	57.13
1083.122	55.28
1083.54	55.22
1083.958	54.72
1084.376	56.65
1084.794	54.56
1085.212	54.89
1085.63	57.06
1086.048	55.27
1086.466	57.15
1086.884	57.37
1087.302	55.58
1087.72	56.02
1088.138	55.76
1088.555	56
1088.973	55.04
1089.391	55.24
1089.809	54.82
1090.226	56.87
1090.644	57.31
1091.062	55.88
1091.479	57.47
1091.897	57.35
1092.314	57.43
1092.732	55.48
1093.15	54.56
1093.567	54.33
1093.984	55.25
1094.402	56.25
1094.819	54.22
1095.237	55.78
1095.654	55.65
1096.071	55.83
1096.488	55.32
1096.906	51.9
1097.323	55.04
1097.74	52.83
1098.157	57.74
1098.574	54.98
1098.991	56.28
1099.409	55.15
1099.826	52.26
1100.243	55.93
1100.66	57.7
1101.077	53.57
1101.494	54.85
1101.91	53.15
1102.327	55.59
1102.744	56.91
1103.161	55.08
1103.578	52.97
1103.994	55.94
1104.411	55.65
1104.828	54.66
1105.245	54.83
1105.661	52.09
1106.078	55.28
1106.494	54.98
1106.911	55.41
1107.328	54.23
1107.744	56.32
1108.161	50.86
1108.577	57.88
1108.993	51.89
1109.41	52.23
1109.826	50.6
1110.242	49.85
1110.659	53.48
1111.075	51.42
1111.491	49.72
1111.908	52.65
1112.324	52.81
1112.74	53.49
1113.156	51.67
1113.572	49.52
1113.988	56.89
1114.404	57.82
1114.82	52.12
1115.236	48.64
1115.652	55.65
1116.068	50.05
1116.484	59.62
1116.9	52.62
1117.316	56.06
1117.732	-114.29
1118.147	-133.33
1118.563	-18.18
1118.979	-44.44
