Data from JCR0023_Black1_Reflection_00003.txt Node
Date: Fri Jul 31 11:43:46 ACST 2020
User: Stacey Dix
Spectrometer: MAYP113282
Scans to average: 1
Trigger mode: 0
Integration Time (sec): 1.000000E-1
Electric dark correction enabled: true
Boxcar width: 0
XAxis mode: Wavelengths
Number of Pixels in Spectrum: 2068
>>>>>Begin Spectral Data<<<<<
198.791	-218.18
199.266	75
199.74	150
200.215	150
200.69	21.32
201.164	17.21
201.639	5.17
202.114	17.41
202.588	28.83
203.063	37.05
203.537	55.23
204.012	47.37
204.486	27.17
204.961	37.35
205.435	0
205.909	31.48
206.384	22.07
206.858	3.31
207.332	33.43
207.807	15.75
208.281	28.38
208.755	13.48
209.229	4.69
209.703	25.62
210.177	20.4
210.651	20.27
211.126	22.18
211.6	-9.45
212.074	17.37
212.548	21.2
213.021	25.51
213.495	29.21
213.969	12.43
214.443	22.12
214.917	25.06
215.391	12.15
215.864	13.24
216.338	18.46
216.812	15.79
217.286	26.79
217.759	24.32
218.233	19.3
218.706	10.02
219.18	13.69
219.654	10.96
220.127	28.43
220.6	9.8
221.074	26.37
221.547	21.82
222.021	20.74
222.494	22.17
222.967	24.26
223.441	24.52
223.914	20.93
224.387	14.76
224.86	27.23
225.334	22.3
225.807	16.76
226.28	14.14
226.753	14.67
227.226	16.81
227.699	17.09
228.172	14.8
228.645	17.13
229.118	14.87
229.591	17.9
230.064	13.86
230.537	18.3
231.01	15.85
231.482	14.85
231.955	13.36
232.428	14.37
232.901	12.55
233.373	14.92
233.846	14.53
234.319	12.84
234.791	13.74
235.264	14.31
235.736	14.41
236.209	13.36
236.681	12.86
237.154	14.42
237.626	14.8
238.099	14.14
238.571	13.64
239.044	16.62
239.516	14.3
239.988	11.51
240.46	13.01
240.933	12.67
241.405	14.47
241.877	13.18
242.349	14.37
242.821	13.36
243.293	13.04
243.765	12.52
244.237	13.36
244.71	13.12
245.181	13.52
245.653	12.99
246.125	12.99
246.597	12.63
247.069	13.08
247.541	12.83
248.013	13.5
248.485	12.99
248.956	13.33
249.428	12.48
249.9	12.01
250.371	12.35
250.843	13.07
251.315	13.16
251.786	11.41
252.258	11.93
252.729	12.66
253.201	11.88
253.672	11.05
254.144	11.76
254.615	11.7
255.086	11.6
255.558	12.21
256.029	12.16
256.5	12.19
256.972	12
257.443	12.36
257.914	11.83
258.385	11.91
258.856	11.59
259.327	11.14
259.799	11.26
260.27	11.36
260.741	10.77
261.212	10.92
261.683	11.24
262.154	11.08
262.624	10.68
263.095	11.48
263.566	10.97
264.037	11.51
264.508	10.9
264.979	11.95
265.449	11.21
265.92	10.6
266.391	10.85
266.861	11.73
267.332	10.53
267.803	11.71
268.273	11.8
268.744	11.86
269.214	11.15
269.685	11.94
270.155	10.83
270.626	12.13
271.096	11.61
271.566	11.81
272.037	11.46
272.507	11.32
272.977	10.93
273.448	12.11
273.918	11.37
274.388	11.73
274.858	10.71
275.328	11.78
275.798	9.34
276.268	11.76
276.738	10.53
277.208	11.5
277.678	10.64
278.148	10.77
278.618	10.3
279.088	11.14
279.558	11.01
280.028	10.49
280.498	10.75
280.968	10.49
281.437	10.22
281.907	11.39
282.377	10.75
282.847	11.48
283.316	10.99
283.786	11
284.255	11.27
284.725	11.19
285.194	10.87
285.664	10.4
286.133	10.22
286.603	10.13
287.072	10.82
287.542	10.75
288.011	10.93
288.48	10.15
288.95	11.58
289.419	10.01
289.888	10.62
290.357	10.9
290.827	10.4
291.296	10.45
291.765	10.95
292.234	10.16
292.703	9.72
293.172	11.42
293.641	10.84
294.11	11.51
294.579	10.96
295.048	10.22
295.517	11.12
295.986	10.04
296.455	11.16
296.923	10.14
297.392	10.17
297.861	10.99
298.33	11.08
298.798	10.84
299.267	11.41
299.736	10.3
300.204	11.6
300.673	11.34
301.141	10.66
301.61	10.58
302.079	9.85
302.547	10.36
303.015	10.56
303.484	10.37
303.952	9.84
304.421	10.72
304.889	10.07
305.357	10.42
305.825	10.16
306.294	11.07
306.762	10.93
307.23	10.91
307.698	11.15
308.166	11.02
308.634	10.4
309.103	10.11
309.571	10.74
310.039	9.98
310.507	10.22
310.975	10.23
311.442	9.75
311.91	10.26
312.378	11.15
312.846	10.27
313.314	10.64
313.782	10.2
314.249	11.19
314.717	11.46
315.185	10.71
315.652	10.21
316.12	10.7
316.588	9.22
317.055	11.76
317.523	10.73
317.99	10.89
318.458	10.43
318.925	10.08
319.393	10.27
319.86	10.5
320.328	10.81
320.795	10.29
321.262	10.97
321.73	9.67
322.197	10.31
322.664	9.45
323.131	11.08
323.598	10.8
324.066	10.06
324.533	10.22
325	10.9
325.467	11.06
325.934	10.57
326.401	11.27
326.868	11.25
327.335	10.76
327.802	10.96
328.269	11.24
328.735	11.31
329.202	10.65
329.669	10.97
330.136	10.79
330.603	11.07
331.069	12.11
331.536	10.73
332.003	11.13
332.469	10.31
332.936	10.6
333.402	11.65
333.869	11.91
334.336	11.07
334.802	10.6
335.268	10.99
335.735	10.74
336.201	11.26
336.668	10.07
337.134	10.79
337.6	10.12
338.067	10.96
338.533	10.62
338.999	10.23
339.465	11.27
339.931	10.98
340.398	10.67
340.864	11.06
341.33	10.69
341.796	12.3
342.262	10.99
342.728	10.45
343.194	10.03
343.66	10.53
344.126	11.02
344.592	10.95
345.057	9.33
345.523	10.41
345.989	10.1
346.455	10.08
346.921	10.5
347.386	11.8
347.852	10.78
348.318	8.6
348.783	11.1
349.249	9.57
349.714	9.99
350.18	11
350.645	10.56
351.111	9.42
351.576	9.51
352.042	11.2
352.507	10.28
352.973	10.41
353.438	10.6
353.903	10.67
354.369	10.23
354.834	11.1
355.299	11.39
355.764	9.84
356.229	10.19
356.695	10.06
357.16	10.69
357.625	9.55
358.09	10.04
358.555	10.65
359.02	9.7
359.485	10.56
359.95	9.72
360.415	10.17
360.879	10.68
361.344	10.78
361.809	11.48
362.274	10.17
362.739	12.06
363.203	9.62
363.668	9.89
364.133	10.65
364.597	9.31
365.062	11
365.527	10.61
365.991	10.54
366.456	11.12
366.92	10.29
367.385	10.8
367.849	10.05
368.314	9.22
368.778	10.08
369.242	10.27
369.707	11.18
370.171	10.82
370.635	10.42
371.1	10.58
371.564	10.27
372.028	9.98
372.492	9.97
372.956	10.18
373.42	10.78
373.884	10.18
374.348	11.16
374.812	9.66
375.276	10.51
375.74	10.19
376.204	9.81
376.668	10.68
377.132	10.39
377.596	8.88
378.06	11
378.524	10.22
378.987	10.98
379.451	11.21
379.915	9.97
380.378	9.36
380.842	10.45
381.306	10.46
381.769	11.43
382.233	10.16
382.696	10.12
383.16	10.8
383.623	9.46
384.087	9.98
384.55	10.43
385.014	10.25
385.477	10.17
385.94	10.58
386.404	10.18
386.867	11.24
387.33	9.22
387.793	11.22
388.256	10.58
388.72	10.24
389.183	9.72
389.646	10.2
390.109	10.68
390.572	11.01
391.035	10.59
391.498	10.23
391.961	10.69
392.424	9.72
392.887	10.06
393.35	11.01
393.812	9.48
394.275	9.67
394.738	11.03
395.201	10.98
395.664	10.25
396.126	10.66
396.589	10.41
397.052	10.41
397.514	9.49
397.977	11.6
398.439	9.31
398.902	10.45
399.364	10.1
399.827	10.95
400.289	9.74
400.752	10.16
401.214	10.25
401.676	10.52
402.139	10.02
402.601	9.89
403.063	9.69
403.525	11.48
403.988	11.45
404.45	9.23
404.912	10.9
405.374	9.27
405.836	9.27
406.298	10.78
406.76	10.27
407.222	9.91
407.684	10.1
408.146	10.78
408.608	10.11
409.07	10.05
409.532	9.04
409.994	10.78
410.456	10.55
410.917	9.8
411.379	10.02
411.841	10.17
412.303	10.97
412.764	10.28
413.226	9.91
413.687	9.82
414.149	10.56
414.611	10.64
415.072	10.2
415.534	11.22
415.995	10.35
416.457	9.86
416.918	10.54
417.379	9.74
417.841	9.5
418.302	10.08
418.763	10.59
419.225	9.54
419.686	11.46
420.147	10.33
420.608	11.32
421.069	10.4
421.53	10.92
421.991	10.28
422.453	10.65
422.914	10.73
423.375	9.83
423.836	10.65
424.297	10.24
424.757	11.73
425.218	10.17
425.679	11.42
426.14	9.87
426.601	10.24
427.062	11.02
427.522	9.95
427.983	11.61
428.444	11.51
428.904	9.19
429.365	10.74
429.826	9.71
430.286	11.19
430.747	10.2
431.207	9.85
431.668	12.21
432.128	9.79
432.589	11.74
433.049	10.4
433.509	10.51
433.97	11.5
434.43	11.17
434.89	10.31
435.351	9.02
435.811	11.47
436.271	10.5
436.731	10.29
437.191	10.76
437.651	9.69
438.112	10.89
438.572	9.85
439.032	10.48
439.492	10.24
439.952	11.3
440.412	10.83
440.871	9.97
441.331	11.57
441.791	11.5
442.251	10.49
442.711	11.23
443.171	9.49
443.63	10.7
444.09	11.05
444.55	11.05
445.009	11.8
445.469	10.74
445.929	11.45
446.388	9.67
446.848	10.98
447.307	9.94
447.767	8.91
448.226	11.72
448.686	11.72
449.145	9.01
449.604	10.96
450.064	10.53
450.523	10.53
450.982	10.53
451.442	11.59
451.901	12.22
452.36	9.77
452.819	10.74
453.278	10.38
453.737	11.45
454.197	9.73
454.656	10.73
455.115	10.17
455.574	11.3
456.033	12.47
456.492	10.58
456.95	10.87
457.409	11.76
457.868	10.76
458.327	12.65
458.786	10.61
459.245	11.19
459.703	12.34
460.162	11.56
460.621	11.2
461.079	10.16
461.538	10.81
461.997	12.01
462.455	11.24
462.914	10.65
463.372	11.28
463.831	9.61
464.289	11.16
464.748	11.98
465.206	10.73
465.664	11.06
466.123	11.67
466.581	11.36
467.039	11.18
467.497	10.06
467.956	11.27
468.414	12.49
468.872	9.85
469.33	10.89
469.788	11.93
470.246	12.16
470.704	10.05
471.162	10.37
471.62	11.91
472.078	9.12
472.536	11.95
472.994	10.99
473.452	9.97
473.91	12.06
474.368	10.52
474.826	11.22
475.283	11.57
475.741	10.09
476.199	10.06
476.656	11.89
477.114	11.72
477.572	12.15
478.029	13.3
478.487	11.32
478.944	10.1
479.402	11.64
479.859	9.81
480.317	11.73
480.774	14.11
481.232	11.7
481.689	8.18
482.146	12.1
482.604	10.34
483.061	10.97
483.518	12.57
483.975	10.12
484.433	12.14
484.89	13.51
485.347	11.05
485.804	12.14
486.261	11.89
486.718	12.33
487.175	11.32
487.632	11.96
488.089	10.44
488.546	13.51
489.003	11.41
489.46	10.28
489.917	12.26
490.373	12.48
490.83	11.09
491.287	12.01
491.744	8.92
492.2	11.26
492.657	11.27
493.114	10.77
493.57	11.15
494.027	12.37
494.484	12.57
494.94	11.41
495.397	12.31
495.853	12.66
496.31	13.77
496.766	11.86
497.222	11.95
497.679	10.38
498.135	11.22
498.591	11.34
499.048	11.01
499.504	11.41
499.96	10.48
500.416	10.78
500.872	10.49
501.329	10.92
501.785	11.76
502.241	11.09
502.697	12.32
503.153	11.97
503.609	11.34
504.065	12.07
504.521	10.16
504.977	12.96
505.432	11.45
505.888	10.33
506.344	10.81
506.8	11.24
507.256	13.21
507.711	10.94
508.167	11.85
508.623	11.75
509.078	13.28
509.534	12.65
509.99	12.14
510.445	11.96
510.901	10.73
511.356	11.34
511.812	10.84
512.267	11.69
512.722	12.24
513.178	12.51
513.633	12.3
514.089	12.63
514.544	12.62
514.999	11.41
515.454	12.22
515.91	11.73
516.365	12.81
516.82	11.76
517.275	11.97
517.73	13.35
518.185	11.2
518.64	11.58
519.095	11.4
519.55	11.38
520.005	12.81
520.46	12.82
520.915	11.96
521.37	11.03
521.825	11.94
522.28	11.5
522.734	12.66
523.189	11.72
523.644	11.42
524.099	12.72
524.553	11.04
525.008	12.64
525.462	13.96
525.917	13.21
526.372	11.06
526.826	12.61
527.281	12.3
527.735	12.58
528.19	12.02
528.644	11.51
529.098	11.92
529.553	11.73
530.007	10.53
530.461	13.24
530.916	11.76
531.37	11.51
531.824	11.9
532.278	11.41
532.732	11.62
533.186	12.44
533.641	11.8
534.095	12.49
534.549	11.12
535.003	11.72
535.457	13.16
535.911	11.6
536.365	14
536.818	11.1
537.272	13.57
537.726	11.45
538.18	11.73
538.634	12.22
539.087	13.05
539.541	12.42
539.995	13.35
540.449	12.61
540.902	11.64
541.356	12.74
541.809	12.54
542.263	11.61
542.716	11.72
543.17	12.68
543.623	11.39
544.077	12.8
544.53	12.94
544.984	13.56
545.437	12.39
545.89	11.38
546.344	12.11
546.797	12.96
547.25	12.68
547.703	13.16
548.157	11.07
548.61	12.27
549.063	13.11
549.516	13.2
549.969	12.36
550.422	12.56
550.875	13.77
551.328	12.81
551.781	13.95
552.234	13.03
552.687	12.05
553.14	14.09
553.592	12.5
554.045	13.24
554.498	12.11
554.951	13.26
555.404	13.45
555.856	14.07
556.309	13.47
556.762	13.58
557.214	12.66
557.667	13.55
558.119	14.22
558.572	12.21
559.024	13.23
559.477	12.88
559.929	12.2
560.382	13.72
560.834	13.66
561.286	12.83
561.739	12.38
562.191	14.06
562.643	13.53
563.095	12.84
563.548	13.25
564	13.93
564.452	13.62
564.904	12.71
565.356	13.62
565.808	12.45
566.26	12.93
566.712	13.79
567.164	13.33
567.616	13.02
568.068	13.38
568.52	14.45
568.972	12.85
569.424	13.71
569.876	13.67
570.327	13.53
570.779	13.43
571.231	14.35
571.682	13.7
572.134	14.06
572.586	14.18
573.037	13.73
573.489	12.65
573.941	14.03
574.392	12.77
574.844	13.09
575.295	14.49
575.746	13.63
576.198	14.07
576.649	13.58
577.101	14.1
577.552	14.35
578.003	13.5
578.454	13.36
578.906	12.72
579.357	12.6
579.808	14.01
580.259	14
580.71	14.53
581.161	14.26
581.612	13.46
582.064	13.25
582.515	14.45
582.965	14.09
583.416	14.61
583.867	13.05
584.318	15.08
584.769	14.06
585.22	13.24
585.671	14.25
586.122	14.47
586.572	13.45
587.023	14.09
587.474	13.79
587.924	14.36
588.375	14
588.826	13.9
589.276	14.56
589.727	13.21
590.177	13.84
590.628	15.01
591.078	14.59
591.529	14.18
591.979	13.74
592.429	13.7
592.88	14.59
593.33	13.32
593.78	14.05
594.231	13.92
594.681	14.81
595.131	14.18
595.581	14.18
596.031	13.83
596.481	13
596.932	15.15
597.382	14.16
597.832	14.88
598.282	14.29
598.732	14.47
599.182	14.12
599.632	15.96
600.081	14.11
600.531	15
600.981	14.71
601.431	14.11
601.881	14.45
602.33	13.81
602.78	13.66
603.23	14.08
603.679	15.25
604.129	14.5
604.579	13.76
605.028	14.58
605.478	14.19
605.927	14.79
606.377	15.18
606.826	15.08
607.276	13.71
607.725	14.69
608.175	14.98
608.624	14.48
609.073	14.32
609.522	14.39
609.972	14.31
610.421	14.87
610.87	14.86
611.319	14.04
611.768	15.34
612.218	14.27
612.667	15.28
613.116	14.62
613.565	15.38
614.014	15.03
614.463	14.88
614.912	14.51
615.361	15.26
615.81	13.55
616.258	15.13
616.707	14.93
617.156	15.4
617.605	14.66
618.054	15.29
618.502	14.54
618.951	15.09
619.4	14.69
619.848	14.77
620.297	14.73
620.745	15.14
621.194	14.09
621.642	14.59
622.091	14.68
622.539	14.12
622.988	14.01
623.436	15.16
623.885	15.49
624.333	15.34
624.781	14.91
625.23	15.55
625.678	14.7
626.126	15.35
626.574	14.48
627.022	14.22
627.471	14.69
627.919	14.14
628.367	14.64
628.815	14.79
629.263	15.33
629.711	14.69
630.159	15.1
630.607	14.7
631.055	14.17
631.503	14.98
631.95	15.13
632.398	14.84
632.846	15.35
633.294	15.09
633.742	15.7
634.189	15.15
634.637	14.43
635.085	15.52
635.532	14.79
635.98	15.22
636.427	15.61
636.875	14.79
637.323	15.7
637.77	14.99
638.217	15.11
638.665	14.77
639.112	15.36
639.56	14.28
640.007	15.62
640.454	14.83
640.902	15.29
641.349	15.37
641.796	15.2
642.243	15.49
642.69	14.77
643.138	14.18
643.585	15.32
644.032	15.85
644.479	15.09
644.926	15.39
645.373	15.15
645.82	14.96
646.267	15.32
646.714	15.25
647.161	16.04
647.607	15.74
648.054	14.8
648.501	15.96
648.948	14.93
649.395	16.03
649.841	15.11
650.288	15.7
650.735	16.37
651.181	15.46
651.628	16.05
652.075	14.97
652.521	16.09
652.968	15.37
653.414	15.41
653.861	15.3
654.307	15.42
654.753	15.62
655.2	15.77
655.646	14.7
656.092	15.47
656.539	15.77
656.985	15.72
657.431	16.07
657.877	16.26
658.324	15.45
658.77	16.27
659.216	15.71
659.662	16.02
660.108	16.55
660.554	15.46
661	15.77
661.446	16.5
661.892	16.24
662.338	15.75
662.784	16.69
663.23	16.05
663.675	15.81
664.121	16.36
664.567	16.61
665.013	15.96
665.458	16.7
665.904	15.66
666.35	15.93
666.795	16.46
667.241	16.29
667.687	16.1
668.132	16.5
668.578	16.1
669.023	17.01
669.469	15.72
669.914	16.19
670.359	16.89
670.805	17.34
671.25	16.28
671.695	16.27
672.141	17.37
672.586	16.77
673.031	16.34
673.476	17.28
673.922	17.27
674.367	17.43
674.812	16.75
675.257	16.92
675.702	17
676.147	16.45
676.592	16.75
677.037	16.6
677.482	16.84
677.927	16.63
678.372	16.97
678.817	17.22
679.261	17.01
679.706	17.27
680.151	17.28
680.596	17.4
681.04	17.4
681.485	17.43
681.93	17.33
682.374	17.85
682.819	17.75
683.264	18.06
683.708	17.84
684.153	17.71
684.597	17.3
685.042	17.56
685.486	17.43
685.93	17.12
686.375	17.51
686.819	17.53
687.263	16.82
687.708	17.2
688.152	17.2
688.596	17.69
689.04	17.79
689.485	18.1
689.929	17.85
690.373	16.91
690.817	17.71
691.261	17.59
691.705	17.27
692.149	17.25
692.593	17.05
693.037	17.64
693.481	18.07
693.925	17.82
694.369	18.19
694.812	17.73
695.256	17.97
695.7	18.08
696.144	18.07
696.587	18.06
697.031	17.99
697.475	17.52
697.918	17.54
698.362	17.54
698.806	18.87
699.249	17.81
699.693	17.44
700.136	17.68
700.58	18.03
701.023	17.68
701.466	17.61
701.91	18.07
702.353	18
702.796	19.01
703.24	18.38
703.683	18.14
704.126	18.26
704.569	18.23
705.013	18.16
705.456	17.42
705.899	18.06
706.342	18.4
706.785	17.52
707.228	18.44
707.671	18.23
708.114	18.41
708.557	18.16
709	18.76
709.443	17.74
709.886	18.54
710.328	18.59
710.771	18.03
711.214	18.38
711.657	18.4
712.099	18.53
712.542	18.11
712.985	18.32
713.427	18.62
713.87	18.69
714.313	18.39
714.755	18.49
715.198	18.44
715.64	18.59
716.083	18.57
716.525	17.65
716.967	17.99
717.41	19.04
717.852	18.71
718.295	17.94
718.737	17.89
719.179	18.41
719.621	19.45
720.063	18.94
720.506	18.54
720.948	18.92
721.39	18.62
721.832	18.2
722.274	18.24
722.716	18.56
723.158	19.27
723.6	19.04
724.042	18.57
724.484	18.55
724.926	18.49
725.368	18.12
725.81	18.7
726.251	18.81
726.693	18.85
727.135	18.98
727.577	19.22
728.018	17.63
728.46	19.4
728.902	18.81
729.343	18.68
729.785	19.24
730.226	18.41
730.668	18.02
731.109	19.38
731.551	18.76
731.992	19.3
732.434	18.7
732.875	19.66
733.316	19.27
733.758	18.47
734.199	19.68
734.64	19.02
735.081	19.23
735.523	19.41
735.964	18.6
736.405	18.88
736.846	19.06
737.287	19.16
737.728	19.02
738.169	19.36
738.61	18.84
739.051	18.93
739.492	19.76
739.933	19.26
740.374	19.28
740.815	19.29
741.256	19.38
741.696	19.44
742.137	19.59
742.578	19.75
743.019	19.5
743.459	19.11
743.9	19.88
744.341	18.86
744.781	19.3
745.222	19.15
745.662	18.86
746.103	19.41
746.543	19.66
746.984	19.45
747.424	19.3
747.865	19.72
748.305	19.83
748.745	18.97
749.186	19.29
749.626	19.12
750.066	19.75
750.506	19.58
750.947	19.22
751.387	19.87
751.827	18.91
752.267	19.42
752.707	19.8
753.147	19.56
753.587	19.79
754.027	19.99
754.467	19.27
754.907	19.24
755.347	20.35
755.787	20.3
756.227	19.82
756.667	19.47
757.107	19.83
757.546	19.76
757.986	19.47
758.426	19.52
758.865	19.92
759.305	19.86
759.745	19.98
760.184	20.15
760.624	20.25
761.063	19.58
761.503	19.56
761.943	19.14
762.382	19.95
762.821	20.22
763.261	19.26
763.7	19.36
764.14	20.19
764.579	19.88
765.018	20.02
765.457	20.01
765.897	20.26
766.336	20.02
766.775	19.6
767.214	19.07
767.653	20.17
768.092	20.23
768.531	20.26
768.97	20.75
769.409	20.08
769.848	19.87
770.287	19.82
770.726	20.1
771.165	20.11
771.604	20.55
772.043	20.23
772.482	20.06
772.92	19.99
773.359	20.59
773.798	20.58
774.237	20.63
774.675	21.1
775.114	20.14
775.553	20.86
775.991	19.96
776.43	20.16
776.868	20.25
777.307	20.21
777.745	20.44
778.184	20.42
778.622	20.67
779.06	20.02
779.499	20.48
779.937	20.73
780.375	20.13
780.814	20.53
781.252	20.53
781.69	20.54
782.128	20.11
782.566	20.06
783.004	20.29
783.443	20.47
783.881	20.08
784.319	20.56
784.757	20.35
785.195	20.72
785.633	20.69
786.071	20.46
786.508	21.03
786.946	20.24
787.384	20.79
787.822	20.27
788.26	20.52
788.697	20.85
789.135	20.86
789.573	20.51
790.011	21.07
790.448	21.04
790.886	21.02
791.323	20.53
791.761	21.28
792.198	20.91
792.636	21.33
793.073	20.72
793.511	20.97
793.948	21.04
794.386	21.71
794.823	21.09
795.26	20.5
795.698	20.85
796.135	21.2
796.572	21.13
797.009	20.78
797.446	20.81
797.884	22.02
798.321	21.29
798.758	21.07
799.195	21.38
799.632	20.85
800.069	21.57
800.506	21.65
800.943	20.38
801.38	21.75
801.817	21.11
802.254	21.25
802.69	20.62
803.127	21.27
803.564	21.66
804.001	20.78
804.438	21.69
804.874	20.93
805.311	21.69
805.748	21.55
806.184	21.16
806.621	21.68
807.057	21.88
807.494	21.69
807.93	21.75
808.367	20.93
808.803	21.61
809.24	21.55
809.676	21.83
810.112	21.15
810.549	21.84
810.985	21.14
811.421	22.23
811.857	21.79
812.294	21.3
812.73	22.02
813.166	21.94
813.602	21.82
814.038	21.35
814.474	21.97
814.91	21.81
815.346	22.53
815.782	21.5
816.218	22.01
816.654	21.66
817.09	22.01
817.526	22.19
817.962	21.61
818.398	21.78
818.833	22.09
819.269	21.79
819.705	21.68
820.141	21.55
820.576	21.81
821.012	22.06
821.447	22
821.883	22.16
822.319	22.38
822.754	21.66
823.19	21.66
823.625	22.2
824.061	22.21
824.496	22.16
824.931	22.14
825.367	22.08
825.802	21.99
826.237	22.41
826.673	22.76
827.108	21.76
827.543	21.92
827.978	22.14
828.413	22.23
828.849	22.37
829.284	21.93
829.719	22.24
830.154	21.78
830.589	22.4
831.024	22.43
831.459	22.12
831.894	22.42
832.329	22.37
832.763	22.26
833.198	22.2
833.633	22.49
834.068	22.36
834.503	22.59
834.937	22.44
835.372	22.03
835.807	22.93
836.241	22.59
836.676	22.29
837.111	23.01
837.545	22.66
837.98	23.02
838.414	23.06
838.849	22.94
839.283	22.4
839.717	22.08
840.152	23.16
840.586	23.12
841.021	22.57
841.455	22.56
841.889	22.42
842.323	22.87
842.758	22.54
843.192	22.64
843.626	22.46
844.06	22.97
844.494	23.04
844.928	23.05
845.362	23.21
845.796	23.18
846.23	23.12
846.664	22.79
847.098	22.41
847.532	22.79
847.966	22.92
848.4	22.49
848.834	23.15
849.267	23.24
849.701	22.83
850.135	22.85
850.569	23.27
851.002	22.58
851.436	23.08
851.87	22.92
852.303	22.71
852.737	23.45
853.17	23.3
853.604	23.56
854.037	23.1
854.471	22.86
854.904	23.11
855.337	23.32
855.771	22.88
856.204	23.67
856.637	23.58
857.071	23.33
857.504	23.29
857.937	23.06
858.37	23.02
858.804	23.2
859.237	23.46
859.67	23.76
860.103	23.16
860.536	23.82
860.969	23.44
861.402	23.51
861.835	23.19
862.268	23.48
862.701	23.3
863.134	23.59
863.566	23.89
863.999	23.28
864.432	23.54
864.865	23.21
865.298	23.79
865.73	23.04
866.163	23.51
866.596	23.72
867.028	23.98
867.461	23.74
867.893	23.58
868.326	23.43
868.758	23.59
869.191	23.7
869.623	23.75
870.056	23.7
870.488	24.2
870.92	23.74
871.353	23.53
871.785	23.67
872.217	24.08
872.65	23.8
873.082	24.07
873.514	23.72
873.946	24.31
874.378	24.39
874.81	24.22
875.243	24.24
875.675	23.79
876.107	24.27
876.539	24.53
876.971	24.11
877.403	24.41
877.834	24.14
878.266	23.92
878.698	23.99
879.13	23.9
879.562	24.72
879.994	24.26
880.425	24.39
880.857	24.41
881.289	24.15
881.72	23.92
882.152	24.09
882.584	24.08
883.015	24.55
883.447	24.45
883.878	24.46
884.31	24.65
884.741	24.63
885.173	24.81
885.604	24.04
886.035	24.6
886.467	24.49
886.898	24.62
887.329	23.99
887.76	24.51
888.192	24.5
888.623	24.53
889.054	24.67
889.485	24.39
889.916	24.04
890.347	24.53
890.778	24.6
891.209	24.5
891.64	24.41
892.071	24.85
892.502	24.99
892.933	25.09
893.364	24.86
893.795	24.47
894.226	25.05
894.657	24.52
895.087	25.06
895.518	24.65
895.949	25.17
896.38	24.62
896.81	24.71
897.241	24.97
897.671	24.89
898.102	24.67
898.533	24.45
898.963	24.87
899.394	24.26
899.824	25
900.254	25.18
900.685	24.82
901.115	24.54
901.546	25.06
901.976	25.37
902.406	24.85
902.836	24.84
903.267	25
903.697	25.24
904.127	25.03
904.557	24.95
904.987	24.98
905.417	25.46
905.847	25.15
906.277	25.54
906.707	25.01
907.137	25.46
907.567	25.48
907.997	25.1
908.427	25.69
908.857	25.68
909.287	25.69
909.717	25.52
910.146	25.58
910.576	25.4
911.006	25.27
911.436	25.39
911.865	25.49
912.295	25.26
912.724	25.29
913.154	25.35
913.584	25.37
914.013	25.66
914.443	25.63
914.872	25.5
915.302	25.42
915.731	25.4
916.16	25.58
916.59	26.04
917.019	25.78
917.448	25.55
917.878	25.76
918.307	25.73
918.736	25.74
919.165	25.73
919.594	25.64
920.023	25.94
920.452	26.15
920.882	25.95
921.311	25.84
921.74	26.04
922.169	25.74
922.597	25.76
923.026	25.64
923.455	26.18
923.884	26.25
924.313	26.01
924.742	26.09
925.171	26.34
925.599	26.25
926.028	26.4
926.457	26.34
926.885	25.64
927.314	26.02
927.743	26.07
928.171	26.07
928.6	26.03
929.028	26.72
929.457	26.5
929.885	26.35
930.314	26.75
930.742	26.36
931.17	26.17
931.599	26.09
932.027	26.38
932.455	26.36
932.884	26.52
933.312	26.21
933.74	26.4
934.168	26.58
934.596	26.53
935.025	26.56
935.453	26.8
935.881	26.59
936.309	26.53
936.737	26.03
937.165	27.1
937.593	26.53
938.021	26.65
938.449	26.55
938.876	26.42
939.304	26.39
939.732	26.39
940.16	26.75
940.588	26.41
941.015	26.51
941.443	26.49
941.871	27.34
942.298	27.12
942.726	26.39
943.154	26.46
943.581	27.24
944.009	26.78
944.436	26.51
944.864	26.61
945.291	26.46
945.718	26.81
946.146	26.83
946.573	27.12
947.001	27.02
947.428	27.02
947.855	27.1
948.282	26.94
948.71	26.71
949.137	27.01
949.564	26.46
949.991	26.68
950.418	26.87
950.845	27.49
951.272	26.96
951.699	27.46
952.126	27.36
952.553	27.55
952.98	27.03
953.407	27.11
953.834	28.07
954.261	27.17
954.688	27.07
955.114	27.31
955.541	27.06
955.968	27.45
956.395	27.02
956.821	27.32
957.248	27.71
957.674	27.31
958.101	27.51
958.528	27.25
958.954	27.56
959.381	27.22
959.807	27.51
960.234	27.6
960.66	27.48
961.086	27.84
961.513	27.39
961.939	27.76
962.365	27.78
962.792	27.64
963.218	27.39
963.644	27.79
964.07	27.5
964.496	27.82
964.923	28.12
965.349	27.63
965.775	28.31
966.201	27.59
966.627	27.87
967.053	27.96
967.479	27.79
967.905	27.52
968.331	27.93
968.756	27.73
969.182	27.86
969.608	27.43
970.034	27.41
970.46	28.19
970.885	27.95
971.311	28.22
971.737	27.88
972.162	28.4
972.588	27.75
973.014	28.34
973.439	28.02
973.865	28.45
974.29	28.43
974.716	28.23
975.141	28.29
975.567	28
975.992	28.54
976.417	28.42
976.843	28.34
977.268	28.33
977.693	28.52
978.119	28.72
978.544	28.62
978.969	28.6
979.394	28.64
979.819	28.4
980.244	28.65
980.669	28.89
981.095	28.38
981.52	28.66
981.945	28.68
982.369	29.17
982.794	28.66
983.219	28.43
983.644	28.59
984.069	28.5
984.494	28.41
984.919	28.68
985.343	28.48
985.768	29.22
986.193	28.74
986.618	28.95
987.042	28.98
987.467	28.93
987.891	29.05
988.316	28.71
988.741	28.86
989.165	28.94
989.59	28.87
990.014	28.66
990.438	28.9
990.863	28.9
991.287	29.2
991.712	28.96
992.136	29.25
992.56	28.93
992.984	29.16
993.409	29.07
993.833	29.08
994.257	29.14
994.681	29.38
995.105	29.43
995.529	29.42
995.953	29.45
996.377	29.82
996.801	29.16
997.225	29.41
997.649	29.75
998.073	29.36
998.497	29.49
998.921	29.39
999.345	29.81
999.769	29.95
1000.192	29.75
1000.616	29.55
1001.04	29.54
1001.464	29.4
1001.887	29.57
1002.311	29.7
1002.734	29.87
1003.158	29.86
1003.582	29.91
1004.005	30.01
1004.429	30
1004.852	29.8
1005.275	29.7
1005.699	29.91
1006.122	29.74
1006.546	29.62
1006.969	30.16
1007.392	30.36
1007.815	30.01
1008.239	29.9
1008.662	30.07
1009.085	30.24
1009.508	30.37
1009.931	30.06
1010.354	29.71
1010.778	30.52
1011.201	30.13
1011.624	30.08
1012.047	30.45
1012.469	30.32
1012.892	30.35
1013.315	30.07
1013.738	30.24
1014.161	30.69
1014.584	30.57
1015.007	30.06
1015.429	30.39
1015.852	30.64
1016.275	30.94
1016.697	30.8
1017.12	30.61
1017.543	30.41
1017.965	30.62
1018.388	30.84
1018.81	30.85
1019.233	30.68
1019.655	30.61
1020.078	30.72
1020.5	30.71
1020.922	30.5
1021.345	30.87
1021.767	30.96
1022.189	31.08
1022.612	31.25
1023.034	30.47
1023.456	31.05
1023.878	30.86
1024.301	30.54
1024.723	31.09
1025.145	30.66
1025.567	30.76
1025.989	31.22
1026.411	31.12
1026.833	30.48
1027.255	31.08
1027.677	31.11
1028.099	30.96
1028.52	30.92
1028.942	30.95
1029.364	31.01
1029.786	31
1030.208	31.02
1030.629	31.03
1031.051	31.45
1031.473	31.13
1031.894	31.21
1032.316	31.61
1032.738	31.46
1033.159	31.65
1033.581	31.48
1034.002	31.45
1034.424	31.92
1034.845	31.6
1035.267	31.83
1035.688	31.21
1036.109	31.65
1036.531	31.32
1036.952	31.47
1037.373	31.03
1037.794	31.57
1038.216	31.3
1038.637	31.38
1039.058	31.83
1039.479	31.54
1039.9	31.99
1040.321	31.83
1040.742	32.07
1041.163	31.21
1041.584	31.38
1042.005	32.44
1042.426	32.26
1042.847	31.58
1043.268	31.37
1043.689	31.7
1044.11	31.6
1044.53	31.7
1044.951	32.19
1045.372	31.46
1045.793	31.27
1046.213	31.56
1046.634	31.94
1047.055	31.61
1047.475	31.99
1047.896	32.14
1048.316	31.98
1048.737	32.92
1049.157	32.68
1049.578	31.54
1049.998	32.1
1050.419	32.04
1050.839	32.2
1051.259	32.8
1051.68	31.91
1052.1	32.69
1052.52	32.34
1052.94	32.02
1053.361	32.09
1053.781	32.27
1054.201	32.16
1054.621	32.62
1055.041	32.27
1055.461	31.66
1055.881	32.72
1056.301	32.2
1056.721	32.05
1057.141	32.43
1057.561	32.23
1057.981	33.15
1058.401	32.52
1058.82	32.33
1059.24	32.66
1059.66	33
1060.08	32.5
1060.499	32.23
1060.919	33.1
1061.339	32.67
1061.758	32.64
1062.178	32.2
1062.598	32.44
1063.017	32.46
1063.437	32.89
1063.856	33.44
1064.276	31.98
1064.695	32.39
1065.114	33.67
1065.534	33.01
1065.953	31.74
1066.372	33.34
1066.792	33.48
1067.211	32.48
1067.63	33.17
1068.049	33.19
1068.469	33.21
1068.888	33.01
1069.307	32.89
1069.726	33.16
1070.145	32.9
1070.564	32.1
1070.983	33.46
1071.402	33.57
1071.821	33.56
1072.24	33.54
1072.659	33.06
1073.078	33.59
1073.496	32.75
1073.915	32.71
1074.334	33.54
1074.753	32.76
1075.171	33.74
1075.59	32.78
1076.009	33.28
1076.427	33.76
1076.846	32.73
1077.265	33.56
1077.683	33.08
1078.102	33.46
1078.52	34.23
1078.939	33.57
1079.357	34.29
1079.776	33.21
1080.194	33.39
1080.612	32.9
1081.031	32.85
1081.449	32.74
1081.867	35.36
1082.285	32.99
1082.704	33.58
1083.122	32.67
1083.54	34.75
1083.958	34.2
1084.376	33.02
1084.794	32.37
1085.212	34.47
1085.63	33.92
1086.048	33.04
1086.466	34.1
1086.884	34.25
1087.302	34.14
1087.72	33.54
1088.138	33.66
1088.555	33.86
1088.973	32.81
1089.391	33.87
1089.809	33.43
1090.226	33.46
1090.644	32.84
1091.062	33.45
1091.479	33.57
1091.897	33.57
1092.314	34.38
1092.732	35.41
1093.15	33.85
1093.567	34.87
1093.984	34.91
1094.402	33.25
1094.819	34.18
1095.237	33.92
1095.654	33.56
1096.071	34.13
1096.488	33.68
1096.906	35.36
1097.323	35.61
1097.74	33.79
1098.157	33.48
1098.574	34
1098.991	32.82
1099.409	34.55
1099.826	33.62
1100.243	34.65
1100.66	34.4
1101.077	35.64
1101.494	34.09
1101.91	35.7
1102.327	33.04
1102.744	35.07
1103.161	34.18
1103.578	33.12
1103.994	35.27
1104.411	33.52
1104.828	34.38
1105.245	32.88
1105.661	33.64
1106.078	35.3
1106.494	35.19
1106.911	35.75
1107.328	32.72
1107.744	33.91
1108.161	33.86
1108.577	34.37
1108.993	35.56
1109.41	31.29
1109.826	35.1
1110.242	31.22
1110.659	31.5
1111.075	35.65
1111.491	31.02
1111.908	33.87
1112.324	33.28
1112.74	36.65
1113.156	36.01
1113.572	33.28
1113.988	35.27
1114.404	35.29
1114.82	33.35
1115.236	32.03
1115.652	33.04
1116.068	31.87
1116.484	30.85
1116.9	31.25
1117.316	32.69
1117.732	35.29
1118.147	14.63
1118.563	85.71
1118.979	300
