Data from JCR0026_YellowVentral_Reflection_00001.txt Node
Date: Fri Jul 31 12:11:21 ACST 2020
User: Stacey Dix
Spectrometer: MAYP113282
Scans to average: 1
Trigger mode: 0
Integration Time (sec): 1.000000E-1
Electric dark correction enabled: true
Boxcar width: 0
XAxis mode: Wavelengths
Number of Pixels in Spectrum: 2068
>>>>>Begin Spectral Data<<<<<
198.791	22.73
199.266	256.25
199.74	65
200.215	125
200.69	57.61
201.164	48.77
201.639	43.53
202.114	53.07
202.588	55.34
203.063	82.27
203.537	44.98
204.012	68.66
204.486	42.32
204.961	82.68
205.435	26.18
205.909	53.93
206.384	34.95
206.858	49.45
207.332	49.57
207.807	44.61
208.281	73.82
208.755	37.78
209.229	45.78
209.703	48.93
210.177	51.7
210.651	60.64
211.126	55.81
211.6	30.51
212.074	38.55
212.548	60.19
213.021	42.08
213.495	61.45
213.969	42.96
214.443	46.2
214.917	36.46
215.391	31.77
215.864	35.82
216.338	36.15
216.812	37.55
217.286	39.02
217.759	37.6
218.233	35.39
218.706	32.75
219.18	24.54
219.654	29.65
220.127	33.6
220.6	19.96
221.074	32.07
221.547	15.91
222.021	31.05
222.494	18.28
222.967	26.36
223.441	22.45
223.914	30.55
224.387	15.9
224.86	23.24
225.334	21.75
225.807	16.01
226.28	12.18
226.753	13.23
227.226	15.18
227.699	10.83
228.172	13.71
228.645	13.1
229.118	10.64
229.591	14.59
230.064	10.83
230.537	11.42
231.01	11.02
231.482	8.47
231.955	10.11
232.428	7.51
232.901	8.87
233.373	6.79
233.846	9.34
234.319	7.99
234.791	8.21
235.264	8.25
235.736	5.16
236.209	7.31
236.681	7.2
237.154	8.65
237.626	9.86
238.099	8.23
238.571	6.67
239.044	8.6
239.516	7.81
239.988	6.28
240.46	7.7
240.933	4.77
241.405	6.48
241.877	6.42
242.349	7.66
242.821	7.31
243.293	7.88
243.765	6.5
244.237	6.84
244.71	7.5
245.181	6.73
245.653	6.82
246.125	7.28
246.597	6.89
247.069	6.84
247.541	6.85
248.013	6.22
248.485	6.46
248.956	7.89
249.428	5.25
249.9	6.38
250.371	6.38
250.843	6.49
251.315	6.65
251.786	5.36
252.258	5
252.729	5.76
253.201	5.44
253.672	4.7
254.144	5.42
254.615	4.36
255.086	4.89
255.558	5.06
256.029	4.43
256.5	4.89
256.972	4.62
257.443	4.85
257.914	4.28
258.385	4.51
258.856	4.85
259.327	4.67
259.799	4.61
260.27	4.6
260.741	4.03
261.212	4.03
261.683	4.89
262.154	3.39
262.624	4.49
263.095	4.57
263.566	4.35
264.037	4.82
264.508	3.97
264.979	3.58
265.449	4.15
265.92	3.7
266.391	3.86
266.861	3.93
267.332	3.85
267.803	4.78
268.273	4.21
268.744	4.08
269.214	4.24
269.685	3.98
270.155	4.22
270.626	5.12
271.096	3.88
271.566	4.22
272.037	4.94
272.507	4.09
272.977	4.1
273.448	4.3
273.918	4.55
274.388	4.06
274.858	4
275.328	4.54
275.798	3.78
276.268	3.83
276.738	4.15
277.208	4.71
277.678	3.87
278.148	3.68
278.618	3.77
279.088	4.07
279.558	4.62
280.028	3.5
280.498	3.79
280.968	3.42
281.437	3.44
281.907	4.34
282.377	4.32
282.847	3.49
283.316	3.29
283.786	3.87
284.255	3.58
284.725	4.2
285.194	3.45
285.664	3.82
286.133	3.12
286.603	3.08
287.072	3.23
287.542	3.6
288.011	3.66
288.48	3.27
288.95	3.64
289.419	4.1
289.888	3.2
290.357	3.73
290.827	3.54
291.296	3.49
291.765	2.37
292.234	3.48
292.703	2.67
293.172	4.28
293.641	2.96
294.11	3.76
294.579	3.5
295.048	3.44
295.517	3.31
295.986	3.85
296.455	4.49
296.923	3.91
297.392	3.34
297.861	4.05
298.33	4.14
298.798	3.51
299.267	4.72
299.736	3.23
300.204	3.75
300.673	3.8
301.141	2.88
301.61	4.14
302.079	3.69
302.547	4.64
303.015	4.23
303.484	4.56
303.952	3.97
304.421	4.1
304.889	4.62
305.357	4
305.825	4.4
306.294	5.09
306.762	4.62
307.23	4.5
307.698	4.53
308.166	4.32
308.634	4.46
309.103	4.52
309.571	5.23
310.039	4.38
310.507	4.64
310.975	4.56
311.442	4.53
311.91	4.41
312.378	4.7
312.846	4.73
313.314	5.03
313.782	4.44
314.249	4.37
314.717	5.56
315.185	4.37
315.652	5.7
316.12	4.82
316.588	4.62
317.055	5.41
317.523	5.48
317.99	5.71
318.458	5.18
318.925	5.6
319.393	4.92
319.86	5.52
320.328	5.38
320.795	5.4
321.262	5.5
321.73	5.38
322.197	5.96
322.664	5.79
323.131	6.28
323.598	6.14
324.066	6.52
324.533	6.17
325	6.52
325.467	7.01
325.934	6.95
326.401	6.69
326.868	7.49
327.335	7.1
327.802	7.35
328.269	7.28
328.735	8.08
329.202	7.64
329.669	7.48
330.136	8.99
330.603	7.71
331.069	8.59
331.536	7.89
332.003	7.5
332.469	8.26
332.936	7.87
333.402	8.6
333.869	8.13
334.336	8.39
334.802	8.29
335.268	8
335.735	8.88
336.201	8.99
336.668	8.35
337.134	8.75
337.6	8.25
338.067	8.64
338.533	8.19
338.999	8.99
339.465	8.51
339.931	8.14
340.398	8.38
340.864	8.86
341.33	7.75
341.796	8.92
342.262	8.62
342.728	8.15
343.194	8.48
343.66	8.28
344.126	8.3
344.592	8.83
345.057	8.63
345.523	8.39
345.989	8.96
346.455	8.68
346.921	9.34
347.386	8.49
347.852	8.78
348.318	7.87
348.783	9.16
349.249	7.9
349.714	8.48
350.18	8.21
350.645	8.51
351.111	8.59
351.576	7.86
352.042	9.03
352.507	8.47
352.973	8.02
353.438	8.38
353.903	8.77
354.369	7.96
354.834	9.46
355.299	8.88
355.764	8.02
356.229	7.42
356.695	9.02
357.16	8.25
357.625	8.43
358.09	8.27
358.555	8.76
359.02	7.73
359.485	7.78
359.95	8.36
360.415	8.35
360.879	8.65
361.344	8.29
361.809	8.42
362.274	8.05
362.739	8.14
363.203	8.03
363.668	7.3
364.133	8.67
364.597	8.88
365.062	8.06
365.527	9.66
365.991	8.58
366.456	8.04
366.92	8.38
367.385	8.52
367.849	7.74
368.314	7.98
368.778	9.99
369.242	8.77
369.707	8.92
370.171	8.61
370.635	8.77
371.1	8.33
371.564	9.36
372.028	8.55
372.492	8.93
372.956	8.24
373.42	9.35
373.884	8.9
374.348	8.9
374.812	8.83
375.276	9.37
375.74	7.82
376.204	8.69
376.668	9.11
377.132	9.13
377.596	8.61
378.06	8.09
378.524	8.53
378.987	9.83
379.451	8.89
379.915	9.31
380.378	8.31
380.842	8.88
381.306	9.56
381.769	8.1
382.233	8.99
382.696	8.49
383.16	9.19
383.623	7.85
384.087	9.26
384.55	8.45
385.014	8.48
385.477	8.51
385.94	9.19
386.404	8.66
386.867	8.87
387.33	8.21
387.793	8.61
388.256	7.71
388.72	8.2
389.183	7.4
389.646	8.21
390.109	8.8
390.572	9.5
391.035	8.35
391.498	9.44
391.961	8.58
392.424	7.3
392.887	8.24
393.35	7.73
393.812	8.26
394.275	7.91
394.738	7.95
395.201	9.35
395.664	8.2
396.126	9.99
396.589	8.72
397.052	8.07
397.514	9.08
397.977	9.25
398.439	8.68
398.902	8.72
399.364	7.65
399.827	8.58
400.289	8.14
400.752	8.92
401.214	8.71
401.676	8.96
402.139	8.04
402.601	8.86
403.063	7.68
403.525	8.51
403.988	9.04
404.45	7.44
404.912	8.74
405.374	8.04
405.836	7.61
406.298	8.13
406.76	8.55
407.222	8.13
407.684	7.62
408.146	8.87
408.608	8.05
409.07	7.91
409.532	8.28
409.994	6.82
410.456	8.33
410.917	7.83
411.379	8.88
411.841	7.92
412.303	8.14
412.764	8.73
413.226	7.57
413.687	7.69
414.149	8.17
414.611	8.3
415.072	8.08
415.534	8.76
415.995	8.28
416.457	7.75
416.918	8.1
417.379	7.31
417.841	7.69
418.302	8.04
418.763	8.5
419.225	8.47
419.686	8.51
420.147	7.2
420.608	8.78
421.069	7.78
421.53	8.65
421.991	7.69
422.453	8.38
422.914	9.68
423.375	7.78
423.836	7.12
424.297	8.15
424.757	8.34
425.218	7.63
425.679	9.55
426.14	7.29
426.601	8.54
427.062	8.31
427.522	7.93
427.983	8.11
428.444	9.62
428.904	7.61
429.365	8.42
429.826	8.69
430.286	9.2
430.747	8
431.207	6.84
431.668	9.96
432.128	8.6
432.589	9.04
433.049	9.39
433.509	8.45
433.97	8.04
434.43	9.24
434.89	7.87
435.351	6.67
435.811	9.44
436.271	9.35
436.731	10.03
437.191	9.39
437.651	9.01
438.112	9.89
438.572	9.48
439.032	8.87
439.492	8.04
439.952	10.69
440.412	9.18
440.871	8.27
441.331	9.04
441.791	11
442.251	8.7
442.711	10.62
443.171	9.11
443.63	8.27
444.09	8.46
444.55	10.74
445.009	9.05
445.469	10.26
445.929	9.67
446.388	7.81
446.848	10.04
447.307	9.59
447.767	9.28
448.226	10.23
448.686	9.68
449.145	9.93
449.604	7.63
450.064	10.25
450.523	10.52
450.982	9.02
451.442	10.23
451.901	12.15
452.36	8.12
452.819	9.95
453.278	8.33
453.737	9.24
454.197	9.16
454.656	9.78
455.115	9.46
455.574	11.29
456.033	10.88
456.492	10.04
456.95	9.68
457.409	10.5
457.868	10.12
458.327	10.93
458.786	9.43
459.245	10.62
459.703	10.28
460.162	10.55
460.621	10.46
461.079	11.87
461.538	10.19
461.997	9.86
462.455	10.66
462.914	10.89
463.372	9.74
463.831	10.04
464.289	12.23
464.748	11.04
465.206	10.52
465.664	10.92
466.123	11.07
466.581	11.03
467.039	11.63
467.497	11.1
467.956	11.26
468.414	12.61
468.872	10.58
469.33	10.88
469.788	11.52
470.246	12.02
470.704	11.18
471.162	12.47
471.62	13.14
472.078	11.85
472.536	9.56
472.994	13.46
473.452	10.65
473.91	12.12
474.368	12.6
474.826	14.17
475.283	13.78
475.741	11.99
476.199	14.69
476.656	12.16
477.114	13.59
477.572	14.61
478.029	14.33
478.487	14.48
478.944	14.12
479.402	14.81
479.859	13.39
480.317	14.26
480.774	16.61
481.232	14.98
481.689	15.19
482.146	14.51
482.604	15.11
483.061	15.95
483.518	15.72
483.975	15.42
484.433	16.68
484.89	17.52
485.347	14.84
485.804	15.69
486.261	17.48
486.718	16.99
487.175	16.86
487.632	16.21
488.089	16.85
488.546	17.59
489.003	18.05
489.46	18.43
489.917	19.39
490.373	18.67
490.83	16.95
491.287	19.96
491.744	16.06
492.2	16.73
492.657	19.09
493.114	17.75
493.57	15.72
494.027	21.16
494.484	19.52
494.94	17.95
495.397	17.77
495.853	19.79
496.31	19.06
496.766	19.64
497.222	18.8
497.679	19.63
498.135	18.06
498.591	18.25
499.048	18.39
499.504	18.69
499.96	19.25
500.416	20.21
500.872	19.08
501.329	19.15
501.785	18.73
502.241	18.86
502.697	20.68
503.153	19.92
503.609	19.09
504.065	19.36
504.521	18.58
504.977	21.33
505.432	17.84
505.888	20.09
506.344	18.4
506.8	18.76
507.256	20.42
507.711	20.75
508.167	20.68
508.623	19.26
509.078	21.22
509.534	21.93
509.99	20.9
510.445	20.07
510.901	19.7
511.356	22.2
511.812	20.6
512.267	20.34
512.722	19.89
513.178	21.55
513.633	20.02
514.089	21.36
514.544	21.29
514.999	21.31
515.454	22.37
515.91	21.64
516.365	21.92
516.82	19.67
517.275	21
517.73	23.04
518.185	20.51
518.64	21.99
519.095	21.19
519.55	21.01
520.005	20.52
520.46	22.93
520.915	22.46
521.37	21.95
521.825	22.07
522.28	21.66
522.734	22.7
523.189	21.97
523.644	23.3
524.099	22.97
524.553	22.97
525.008	23.56
525.462	21.95
525.917	25.08
526.372	23.1
526.826	23.68
527.281	24.79
527.735	25.26
528.19	24.14
528.644	24.02
529.098	23.78
529.553	24.26
530.007	23.77
530.461	24.82
530.916	24.03
531.37	23.63
531.824	26.49
532.278	23.53
532.732	27.11
533.186	24.36
533.641	26.62
534.095	25.45
534.549	27.44
535.003	27.33
535.457	27.54
535.911	27.5
536.365	27.12
536.818	26.22
537.272	27.68
537.726	27.42
538.18	27.75
538.634	27.83
539.087	28.38
539.541	26.5
539.995	26.19
540.449	27.52
540.902	28.87
541.356	28.42
541.809	28.8
542.263	26.45
542.716	30.37
543.17	29.01
543.623	30.02
544.077	28.41
544.53	29.98
544.984	30.76
545.437	30.9
545.89	30.7
546.344	31.18
546.797	30.88
547.25	31.3
547.703	32.21
548.157	30.26
548.61	32.06
549.063	31.63
549.516	32.04
549.969	32.38
550.422	31.58
550.875	34.69
551.328	33.3
551.781	35.03
552.234	34.38
552.687	33.8
553.14	34.72
553.592	31.44
554.045	35.09
554.498	34.58
554.951	33.28
555.404	33.48
555.856	35.91
556.309	35.42
556.762	34.29
557.214	34.24
557.667	35.54
558.119	37.42
558.572	34.71
559.024	37.21
559.477	37.16
559.929	36.56
560.382	35.64
560.834	37.41
561.286	36.26
561.739	35.99
562.191	36.86
562.643	35.77
563.095	37.89
563.548	36.38
564	38.01
564.452	37.85
564.904	36.44
565.356	37.54
565.808	37.79
566.26	37.39
566.712	39.4
567.164	38.67
567.616	37.2
568.068	39.14
568.52	38.28
568.972	37.41
569.424	37.49
569.876	38.82
570.327	38.51
570.779	38.25
571.231	39.64
571.682	37.73
572.134	38.36
572.586	39.47
573.037	37.53
573.489	38.07
573.941	38.34
574.392	38.75
574.844	38.8
575.295	38.64
575.746	38.57
576.198	39.41
576.649	39.22
577.101	38.88
577.552	40.05
578.003	38.62
578.454	39.76
578.906	40.22
579.357	39.09
579.808	39.88
580.259	38.36
580.71	40.52
581.161	39.77
581.612	39.48
582.064	38.98
582.515	40.72
582.965	40.57
583.416	39.41
583.867	41
584.318	41.84
584.769	40.58
585.22	41.68
585.671	41.35
586.122	42.09
586.572	42.8
587.023	41.78
587.474	43.54
587.924	42.62
588.375	41.77
588.826	42.65
589.276	42.58
589.727	43.36
590.177	43.01
590.628	43.05
591.078	42.08
591.529	44.18
591.979	43.07
592.429	44.1
592.88	43.81
593.33	43.45
593.78	42.99
594.231	43.27
594.681	43.39
595.131	44.13
595.581	43.99
596.031	42.67
596.481	43.49
596.932	44.61
597.382	44.36
597.832	44.25
598.282	42.78
598.732	44.59
599.182	43.6
599.632	43.12
600.081	43.46
600.531	45.7
600.981	43.14
601.431	43.69
601.881	45.34
602.33	44.49
602.78	45.31
603.23	45.2
603.679	45.57
604.129	45.23
604.579	44.08
605.028	43.22
605.478	44.27
605.927	44.98
606.377	44.65
606.826	45.77
607.276	45.67
607.725	44.99
608.175	44.32
608.624	45.77
609.073	46.05
609.522	45.03
609.972	44.63
610.421	46.8
610.87	45.09
611.319	44.82
611.768	45.33
612.218	44.73
612.667	46.69
613.116	45.52
613.565	45.23
614.014	43.79
614.463	47.25
614.912	44.41
615.361	45.94
615.81	46.89
616.258	45.41
616.707	45.54
617.156	45.98
617.605	44.83
618.054	45.86
618.502	45.4
618.951	46.18
619.4	46.08
619.848	46.97
620.297	45.35
620.745	46.79
621.194	45.33
621.642	45.72
622.091	46.58
622.539	45.79
622.988	46.03
623.436	46.51
623.885	46.26
624.333	45.91
624.781	47.63
625.23	46.51
625.678	47.19
626.126	46.38
626.574	45.83
627.022	45.95
627.471	46.65
627.919	46.34
628.367	47.31
628.815	45.9
629.263	47.32
629.711	46.61
630.159	47.07
630.607	45.87
631.055	45.24
631.503	46.39
631.95	47.29
632.398	45.51
632.846	47.09
633.294	46.63
633.742	47.32
634.189	46.74
634.637	46.13
635.085	46.79
635.532	46.62
635.98	45.59
636.427	45.57
636.875	46.9
637.323	46.58
637.77	46.6
638.217	46.65
638.665	46.61
639.112	47.11
639.56	46.43
640.007	47.55
640.454	47.73
640.902	48.19
641.349	46.97
641.796	46.78
642.243	47.89
642.69	46.86
643.138	46.88
643.585	48.23
644.032	47.69
644.479	47.71
644.926	48.27
645.373	47.5
645.82	47.37
646.267	46.99
646.714	46.96
647.161	48.42
647.607	45.62
648.054	46.57
648.501	47.94
648.948	47.88
649.395	46.75
649.841	48.49
650.288	46.57
650.735	48.55
651.181	46.87
651.628	47.98
652.075	47.67
652.521	47.72
652.968	48.92
653.414	46.67
653.861	47.98
654.307	47.6
654.753	48.49
655.2	47.99
655.646	47.65
656.092	47.63
656.539	47.57
656.985	47.58
657.431	48.82
657.877	47.84
658.324	49.81
658.77	49.21
659.216	48.66
659.662	48.51
660.108	50.39
660.554	47.74
661	46.99
661.446	50.02
661.892	49.4
662.338	48.28
662.784	49.52
663.23	49.08
663.675	49.06
664.121	49.39
664.567	49.48
665.013	48.31
665.458	49.68
665.904	49.62
666.35	48.43
666.795	49.27
667.241	50.07
667.687	48.54
668.132	48.85
668.578	49.57
669.023	49.41
669.469	48.7
669.914	49.55
670.359	48.97
670.805	48.58
671.25	48.52
671.695	48.36
672.141	49.74
672.586	49.65
673.031	50.71
673.476	49.44
673.922	49.95
674.367	49.72
674.812	49.98
675.257	50.13
675.702	50.14
676.147	50.12
676.592	49.57
677.037	49.43
677.482	50.74
677.927	49.53
678.372	50.16
678.817	50.42
679.261	50.31
679.706	49.4
680.151	50.47
680.596	50.07
681.04	50.72
681.485	50.51
681.93	49.33
682.374	50.16
682.819	50.57
683.264	50.47
683.708	50.68
684.153	51.52
684.597	50.24
685.042	50.24
685.486	51.81
685.93	49.01
686.375	51.07
686.819	50.43
687.263	50.25
687.708	49.94
688.152	50.99
688.596	51.16
689.04	50.32
689.485	50.99
689.929	50.72
690.373	50.48
690.817	51.76
691.261	50.09
691.705	50.42
692.149	50.74
692.593	50.13
693.037	50.82
693.481	50.86
693.925	51.23
694.369	50.83
694.812	51.16
695.256	51.36
695.7	51.58
696.144	50.61
696.587	50.53
697.031	52.07
697.475	50.98
697.918	51.34
698.362	50.94
698.806	52.02
699.249	51.91
699.693	50.82
700.136	50.09
700.58	51.24
701.023	51.17
701.466	50.84
701.91	50.94
702.353	51.44
702.796	52.19
703.24	50.96
703.683	51.42
704.126	50.94
704.569	49.94
705.013	51.2
705.456	51.81
705.899	50.77
706.342	51.64
706.785	51.02
707.228	52.26
707.671	52.06
708.114	51.86
708.557	51.15
709	52.21
709.443	51.79
709.886	50.89
710.328	51.53
710.771	51.98
711.214	52.08
711.657	52.94
712.099	51.94
712.542	51.16
712.985	51.38
713.427	52.34
713.87	52.09
714.313	51.64
714.755	51.38
715.198	52.04
715.64	51.82
716.083	51.58
716.525	51.68
716.967	51.48
717.41	52.44
717.852	51.87
718.295	51.88
718.737	52.7
719.179	53.95
719.621	52.6
720.063	51.74
720.506	51.1
720.948	52.54
721.39	52.53
721.832	51.8
722.274	52.09
722.716	52.71
723.158	51.99
723.6	51.81
724.042	51.22
724.484	51.38
724.926	52.67
725.368	52.09
725.81	51.94
726.251	52.55
726.693	51.58
727.135	52.86
727.577	51.29
728.018	52.08
728.46	51.73
728.902	52.5
729.343	52.1
729.785	52.03
730.226	52.43
730.668	52.71
731.109	51.89
731.551	51.72
731.992	52.86
732.434	52.9
732.875	53.2
733.316	53.05
733.758	52.4
734.199	53.18
734.64	51.18
735.081	52.79
735.523	53.19
735.964	52.79
736.405	52.05
736.846	52.84
737.287	50.67
737.728	52.16
738.169	52.23
738.61	53.4
739.051	52.81
739.492	53.98
739.933	52.28
740.374	52.77
740.815	52.33
741.256	53.31
741.696	52.83
742.137	52.42
742.578	54.55
743.019	51.82
743.459	51.47
743.9	51.79
744.341	52.93
744.781	51.64
745.222	52.3
745.662	51.79
746.103	52.42
746.543	52.35
746.984	53.72
747.424	52.16
747.865	52.25
748.305	53.68
748.745	52.43
749.186	54.08
749.626	54.02
750.066	52.86
750.506	54.14
750.947	52.27
751.387	53.3
751.827	53.46
752.267	52.78
752.707	54.07
753.147	53.53
753.587	53.34
754.027	52.88
754.467	52.48
754.907	53.82
755.347	53.4
755.787	53.4
756.227	53.09
756.667	52.61
757.107	53.45
757.546	53.31
757.986	53.53
758.426	53.75
758.865	53.48
759.305	53.43
759.745	53.12
760.184	53.43
760.624	54.51
761.063	53.86
761.503	53.81
761.943	52.74
762.382	53.47
762.821	53.27
763.261	53.28
763.7	52.68
764.14	53.52
764.579	53.48
765.018	55.01
765.457	53.78
765.897	53.88
766.336	53.23
766.775	53.83
767.214	52.89
767.653	53.26
768.092	53.92
768.531	53.68
768.97	53.92
769.409	52.99
769.848	53.92
770.287	54.67
770.726	52.84
771.165	54.28
771.604	53.43
772.043	53.51
772.482	53.77
772.92	53.86
773.359	53.48
773.798	54.47
774.237	53.74
774.675	54.91
775.114	53.05
775.553	53.61
775.991	53.67
776.43	53.4
776.868	53.65
777.307	53.59
777.745	53.22
778.184	54.61
778.622	55.22
779.06	52.95
779.499	54.8
779.937	54.44
780.375	53.63
780.814	53.98
781.252	54.7
781.69	54.51
782.128	54.45
782.566	55.4
783.004	54.16
783.443	54.19
783.881	54.57
784.319	53.32
784.757	53.3
785.195	53.69
785.633	54.72
786.071	53.86
786.508	54.72
786.946	54.04
787.384	53.82
787.822	54.45
788.26	54.52
788.697	54.05
789.135	54.37
789.573	55.65
790.011	55.02
790.448	53.94
790.886	54.78
791.323	53.85
791.761	54.35
792.198	54.9
792.636	54.67
793.073	53.53
793.511	55.08
793.948	54.62
794.386	55.47
794.823	54.84
795.26	54.44
795.698	55.08
796.135	54.38
796.572	55.25
797.009	53.75
797.446	55.13
797.884	55.06
798.321	54.63
798.758	54.33
799.195	54.5
799.632	54.09
800.069	54.99
800.506	54.05
800.943	54.47
801.38	55.15
801.817	54.02
802.254	53.9
802.69	54.29
803.127	54.04
803.564	55.55
804.001	54.43
804.438	54.39
804.874	54.39
805.311	54.41
805.748	55.22
806.184	55.23
806.621	54.77
807.057	55.07
807.494	55.4
807.93	55.6
808.367	54.64
808.803	54.61
809.24	55.23
809.676	54.8
810.112	54.54
810.549	54.64
810.985	55.33
811.421	55.59
811.857	54.96
812.294	54.32
812.73	55.2
813.166	55.04
813.602	54.29
814.038	54.88
814.474	55.14
814.91	55.83
815.346	55.16
815.782	54.3
816.218	55.61
816.654	55.27
817.09	54.98
817.526	55.38
817.962	55.3
818.398	55.64
818.833	55.16
819.269	55.24
819.705	54.48
820.141	54.88
820.576	55.49
821.012	54.65
821.447	54.89
821.883	55.66
822.319	55.02
822.754	54.72
823.19	55.61
823.625	55.73
824.061	55.21
824.496	55.3
824.931	55.36
825.367	55.37
825.802	55.67
826.237	55.55
826.673	55.78
827.108	56.01
827.543	55.44
827.978	55.17
828.413	56.25
828.849	56.74
829.284	55.4
829.719	55.29
830.154	56.17
830.589	55.41
831.024	56.43
831.459	56
831.894	55.21
832.329	55.97
832.763	55.84
833.198	55.98
833.633	56.13
834.068	56.03
834.503	55.95
834.937	55.83
835.372	55.86
835.807	56.35
836.241	56.05
836.676	55.13
837.111	55.49
837.545	56.5
837.98	56.24
838.414	56.27
838.849	56.11
839.283	55.68
839.717	55.2
840.152	55.87
840.586	55.54
841.021	55.97
841.455	55.25
841.889	56.07
842.323	56.14
842.758	56.54
843.192	55.93
843.626	55.37
844.06	55.99
844.494	56.19
844.928	57.08
845.362	56.12
845.796	56.46
846.23	55.97
846.664	56.67
847.098	55.19
847.532	56.47
847.966	55.49
848.4	56.06
848.834	56.25
849.267	56.93
849.701	56.44
850.135	56.61
850.569	55.9
851.002	56.33
851.436	55.32
851.87	55.49
852.303	56.19
852.737	56.27
853.17	56.2
853.604	56.82
854.037	56.29
854.471	56.75
854.904	55.89
855.337	56.7
855.771	56.12
856.204	56.92
856.637	56.18
857.071	56.4
857.504	56.59
857.937	56.17
858.37	55.55
858.804	56.54
859.237	56.95
859.67	56.53
860.103	56.01
860.536	56.75
860.969	57.17
861.402	56.19
861.835	56.64
862.268	56.36
862.701	56.1
863.134	56.75
863.566	57.11
863.999	57.75
864.432	56.69
864.865	56.3
865.298	56.22
865.73	56.64
866.163	56.08
866.596	56.67
867.028	57.14
867.461	57.12
867.893	56.32
868.326	56.86
868.758	56.54
869.191	57.1
869.623	56.35
870.056	56.54
870.488	56.28
870.92	56.78
871.353	56.52
871.785	56.98
872.217	56.41
872.65	57.24
873.082	57.53
873.514	57.24
873.946	57.09
874.378	57.63
874.81	57.39
875.243	56.52
875.675	56.67
876.107	56.85
876.539	56.73
876.971	57.62
877.403	57.48
877.834	56.88
878.266	57.14
878.698	57.11
879.13	57.03
879.562	57.32
879.994	57.05
880.425	56.78
880.857	57.08
881.289	57.22
881.72	57.51
882.152	57.33
882.584	57.19
883.015	56.42
883.447	56.74
883.878	57.42
884.31	57.25
884.741	57.72
885.173	56.4
885.604	56.84
886.035	56.99
886.467	57.16
886.898	56.91
887.329	57.56
887.76	56.93
888.192	58.54
888.623	57.22
889.054	57.43
889.485	57.4
889.916	57.47
890.347	57.94
890.778	56.9
891.209	57.33
891.64	57.28
892.071	57.67
892.502	57.73
892.933	57.87
893.364	58.21
893.795	57.8
894.226	57.2
894.657	57.71
895.087	58.25
895.518	58.14
895.949	57.83
896.38	57.61
896.81	57.98
897.241	58.32
897.671	57.85
898.102	57.8
898.533	57.93
898.963	57.76
899.394	57.55
899.824	58.24
900.254	57.91
900.685	57.93
901.115	57.03
901.546	58.48
901.976	57.89
902.406	57.43
902.836	57.69
903.267	57.21
903.697	57.9
904.127	57.07
904.557	57.82
904.987	57.81
905.417	58.43
905.847	58.38
906.277	58.53
906.707	58.19
907.137	58.03
907.567	58.01
907.997	57.62
908.427	57.5
908.857	57.63
909.287	57.65
909.717	58.05
910.146	57.67
910.576	58.07
911.006	58.22
911.436	57.79
911.865	57.92
912.295	57.91
912.724	57.93
913.154	58.32
913.584	58.1
914.013	58.17
914.443	58.23
914.872	58.5
915.302	58.35
915.731	58.01
916.16	58.24
916.59	58.76
917.019	57.89
917.448	58.48
917.878	58.13
918.307	58.34
918.736	58.41
919.165	57.76
919.594	58.43
920.023	57.42
920.452	58.51
920.882	58.49
921.311	58.23
921.74	57.63
922.169	58.41
922.597	58.11
923.026	58.11
923.455	57.98
923.884	57.68
924.313	58.75
924.742	57.61
925.171	59.05
925.599	58.12
926.028	58.92
926.457	57.96
926.885	58.22
927.314	58.91
927.743	58.74
928.171	57.23
928.6	58.5
929.028	58.79
929.457	59
929.885	58.36
930.314	58.62
930.742	58.19
931.17	58.74
931.599	59.23
932.027	58.52
932.455	58.69
932.884	58.55
933.312	58.63
933.74	58.33
934.168	58.82
934.596	59.39
935.025	59.21
935.453	58.6
935.881	58.3
936.309	58.74
936.737	57.83
937.165	58.64
937.593	58.52
938.021	58.59
938.449	58.62
938.876	57.47
939.304	58.09
939.732	57.93
940.16	58.7
940.588	59.17
941.015	59.26
941.443	58.91
941.871	59.08
942.298	58.98
942.726	57.6
943.154	58.96
943.581	59.45
944.009	58.32
944.436	59.12
944.864	59.47
945.291	59.61
945.718	58.78
946.146	58.43
946.573	57.98
947.001	59.44
947.428	59.63
947.855	59.56
948.282	58.84
948.71	59.03
949.137	59.59
949.564	59.06
949.991	58.68
950.418	58.74
950.845	59.33
951.272	59.47
951.699	59.58
952.126	59.23
952.553	59.08
952.98	59.06
953.407	59.33
953.834	60.02
954.261	59.68
954.688	58.85
955.114	59.62
955.541	58.96
955.968	59.86
956.395	59.82
956.821	59.83
957.248	59.53
957.674	58.69
958.101	59.49
958.528	59.1
958.954	59.69
959.381	59.22
959.807	59.03
960.234	59.71
960.66	58.68
961.086	59.53
961.513	59.52
961.939	59.24
962.365	59.53
962.792	59.01
963.218	59.33
963.644	59.88
964.07	59.58
964.496	59.31
964.923	60.1
965.349	59.28
965.775	59.62
966.201	60.12
966.627	59.89
967.053	59.3
967.479	59.66
967.905	59.72
968.331	59.75
968.756	59.44
969.182	59.59
969.608	59.02
970.034	59.44
970.46	60.46
970.885	59.64
971.311	59.71
971.737	59.05
972.162	59.28
972.588	59.71
973.014	59.96
973.439	59.14
973.865	59.5
974.29	59.71
974.716	59.37
975.141	59.4
975.567	59.25
975.992	59.64
976.417	59.79
976.843	60.02
977.268	59.44
977.693	59.87
978.119	59
978.544	60.14
978.969	59.84
979.394	60.27
979.819	59.72
980.244	60.1
980.669	60.09
981.095	59.12
981.52	59.76
981.945	59.5
982.369	59.58
982.794	59.99
983.219	59.85
983.644	60.17
984.069	60.06
984.494	60.41
984.919	59.92
985.343	60.2
985.768	60.34
986.193	60.25
986.618	60.28
987.042	59.89
987.467	59.55
987.891	59.64
988.316	60.17
988.741	59.64
989.165	59.48
989.59	59.84
990.014	60
990.438	60.03
990.863	59.83
991.287	60.34
991.712	59.49
992.136	59.98
992.56	59.55
992.984	60.13
993.409	59.17
993.833	59.8
994.257	59.37
994.681	59.99
995.105	60.16
995.529	60.2
995.953	60.1
996.377	60.28
996.801	59.86
997.225	60.69
997.649	61.08
998.073	59.62
998.497	60.55
998.921	60.27
999.345	60.99
999.769	60.57
1000.192	60.6
1000.616	60.75
1001.04	60.6
1001.464	60.56
1001.887	60.78
1002.311	60.25
1002.734	60.83
1003.158	60.45
1003.582	60.74
1004.005	61.17
1004.429	60.81
1004.852	60.93
1005.275	60.39
1005.699	60.66
1006.122	60.79
1006.546	60.63
1006.969	61.01
1007.392	61
1007.815	60.43
1008.239	60.28
1008.662	60.78
1009.085	60.98
1009.508	60.83
1009.931	60.66
1010.354	60.47
1010.778	61.04
1011.201	60.85
1011.624	61.28
1012.047	60.77
1012.469	60.4
1012.892	60.39
1013.315	60.15
1013.738	61.21
1014.161	61.08
1014.584	61.65
1015.007	60.83
1015.429	60.26
1015.852	61.2
1016.275	61.02
1016.697	60.56
1017.12	60.73
1017.543	60.94
1017.965	61.04
1018.388	60.9
1018.81	61.42
1019.233	60.53
1019.655	61.52
1020.078	61.29
1020.5	61.27
1020.922	60.33
1021.345	61
1021.767	61.03
1022.189	60.96
1022.612	61.97
1023.034	60.76
1023.456	61.93
1023.878	60.83
1024.301	61.15
1024.723	61.24
1025.145	61.51
1025.567	61.62
1025.989	60.79
1026.411	61.4
1026.833	61.25
1027.255	61.32
1027.677	61.04
1028.099	60.84
1028.52	61.38
1028.942	61
1029.364	60.83
1029.786	61.6
1030.208	60.81
1030.629	61.08
1031.051	62.01
1031.473	61.49
1031.894	60.72
1032.316	62.21
1032.738	62.08
1033.159	61.51
1033.581	61.48
1034.002	61.37
1034.424	61.89
1034.845	61.09
1035.267	61.88
1035.688	61.49
1036.109	61.35
1036.531	61.56
1036.952	60.86
1037.373	61.63
1037.794	61.08
1038.216	61.31
1038.637	62.48
1039.058	62.17
1039.479	61.17
1039.9	61.26
1040.321	62.19
1040.742	62.72
1041.163	61.03
1041.584	61.97
1042.005	62.24
1042.426	61.92
1042.847	60.75
1043.268	61.46
1043.689	61.68
1044.11	61.49
1044.53	61.54
1044.951	61.88
1045.372	60.74
1045.793	61.68
1046.213	61.65
1046.634	61.46
1047.055	61.91
1047.475	61.62
1047.896	61.26
1048.316	61.16
1048.737	62.45
1049.157	62.94
1049.578	60.94
1049.998	61.41
1050.419	60.86
1050.839	61.15
1051.259	61.68
1051.68	62.93
1052.1	61.76
1052.52	62.41
1052.94	61.59
1053.361	61.33
1053.781	60.97
1054.201	62.32
1054.621	61.84
1055.041	61.25
1055.461	61.99
1055.881	62.57
1056.301	60.73
1056.721	62.66
1057.141	62
1057.561	62.29
1057.981	61.85
1058.401	61.2
1058.82	61.02
1059.24	61.59
1059.66	61.31
1060.08	61.96
1060.499	62.36
1060.919	62.1
1061.339	61.63
1061.758	63.66
1062.178	61.6
1062.598	62.22
1063.017	61.89
1063.437	61.51
1063.856	63.47
1064.276	62.25
1064.695	61.11
1065.114	64.15
1065.534	61.91
1065.953	61.58
1066.372	62.41
1066.792	62.19
1067.211	61.9
1067.63	61.31
1068.049	63.37
1068.469	61.4
1068.888	62.08
1069.307	61.28
1069.726	61.25
1070.145	62.35
1070.564	61.23
1070.983	62.51
1071.402	61.29
1071.821	61.91
1072.24	62.52
1072.659	63.22
1073.078	63.32
1073.496	62.07
1073.915	62.56
1074.334	62.16
1074.753	61.78
1075.171	62.38
1075.59	61.29
1076.009	62.84
1076.427	61.96
1076.846	62.65
1077.265	63.04
1077.683	61.93
1078.102	61.33
1078.52	62.55
1078.939	63.19
1079.357	62.42
1079.776	61.13
1080.194	62.56
1080.612	61.59
1081.031	62.31
1081.449	60.93
1081.867	62.34
1082.285	61.03
1082.704	62.14
1083.122	61
1083.54	63.1
1083.958	63.87
1084.376	62.5
1084.794	61.81
1085.212	63.38
1085.63	62.46
1086.048	61.92
1086.466	63.99
1086.884	63.39
1087.302	63.55
1087.72	61.68
1088.138	62.27
1088.555	63.7
1088.973	62.19
1089.391	62.97
1089.809	61.63
1090.226	63.31
1090.644	61.56
1091.062	61.73
1091.479	64.96
1091.897	62.53
1092.314	61.58
1092.732	62.68
1093.15	62.3
1093.567	63.72
1093.984	61.7
1094.402	62.55
1094.819	63.04
1095.237	61.58
1095.654	63.32
1096.071	62.6
1096.488	61.61
1096.906	63.07
1097.323	63.23
1097.74	61.62
1098.157	63.03
1098.574	63.17
1098.991	60.26
1099.409	61.77
1099.826	62.78
1100.243	62.66
1100.66	63.61
1101.077	64.1
1101.494	63.87
1101.91	61.98
1102.327	64.55
1102.744	62.28
1103.161	61.57
1103.578	61.74
1103.994	63.86
1104.411	62.56
1104.828	62.77
1105.245	59.89
1105.661	63.04
1106.078	65.12
1106.494	62.65
1106.911	62.19
1107.328	63.7
1107.744	64.21
1108.161	61.56
1108.577	60.58
1108.993	60.78
1109.41	61.89
1109.826	63.63
1110.242	60.46
1110.659	61.66
1111.075	64.53
1111.491	61.53
1111.908	61.29
1112.324	61.89
1112.74	77.51
1113.156	64.11
1113.572	62.96
1113.988	61.76
1114.404	62.49
1114.82	62.01
1115.236	62.07
1115.652	59.5
1116.068	58.15
1116.484	63.59
1116.9	59.47
1117.316	59.72
1117.732	63.24
1118.147	13.41
1118.563	-35.71
1118.979	218.75
