Data from JCR0034_White2_Reflection_00001.txt Node
Date: Fri Jul 31 15:11:35 ACST 2020
User: Stacey Dix
Spectrometer: MAYP113282
Scans to average: 1
Trigger mode: 0
Integration Time (sec): 1.000000E-1
Electric dark correction enabled: true
Boxcar width: 0
XAxis mode: Wavelengths
Number of Pixels in Spectrum: 2068
>>>>>Begin Spectral Data<<<<<
198.791	0
199.266	19.44
199.74	216.67
200.215	-116.67
200.69	39.31
201.164	35.53
201.639	25.11
202.114	40.04
202.588	41.26
203.063	53.75
203.537	30.04
204.012	31.78
204.486	48.78
204.961	26.8
205.435	32.89
205.909	31.88
206.384	37.23
206.858	23.46
207.332	22.54
207.807	33.47
208.281	30.37
208.755	26.19
209.229	32.25
209.703	24.62
210.177	20.93
210.651	16.49
211.126	34.69
211.6	30.38
212.074	39.36
212.548	25.27
213.021	41.98
213.495	36.26
213.969	24.57
214.443	34.24
214.917	18.96
215.391	21.41
215.864	20.96
216.338	29.35
216.812	37.66
217.286	29.08
217.759	33.73
218.233	30.8
218.706	26.68
219.18	24.44
219.654	28.73
220.127	27.41
220.6	26.55
221.074	21.39
221.547	23.91
222.021	27.5
222.494	24.43
222.967	24.73
223.441	20.24
223.914	27.11
224.387	28.14
224.86	28.95
225.334	20.87
225.807	24.59
226.28	22.33
226.753	24.1
227.226	18.67
227.699	20.24
228.172	24.16
228.645	22.2
229.118	21.21
229.591	20.76
230.064	20.65
230.537	24.05
231.01	18.45
231.482	19.23
231.955	21.84
232.428	21.33
232.901	19.24
233.373	18.52
233.846	21.26
234.319	22.35
234.791	19.89
235.264	19.54
235.736	19.77
236.209	21.64
236.681	18.73
237.154	19.72
237.626	21.21
238.099	19.73
238.571	18.58
239.044	21.96
239.516	19.06
239.988	18.93
240.46	20.15
240.933	19.79
241.405	18.83
241.877	19.82
242.349	19.21
242.821	19.44
243.293	19.02
243.765	17.75
244.237	19.4
244.71	18.54
245.181	16.86
245.653	19.56
246.125	17.1
246.597	18.57
247.069	18.92
247.541	19.15
248.013	17.99
248.485	19.38
248.956	18.61
249.428	18.2
249.9	18.62
250.371	17.99
250.843	17.87
251.315	17.57
251.786	18.01
252.258	17.68
252.729	17.26
253.201	17.23
253.672	16.5
254.144	17.1
254.615	16.48
255.086	17.36
255.558	16.86
256.029	17.19
256.5	17.56
256.972	16.62
257.443	17.05
257.914	16.14
258.385	17.16
258.856	16.17
259.327	17.13
259.799	16.86
260.27	17.01
260.741	16.23
261.212	17.56
261.683	16.93
262.154	17.53
262.624	17.15
263.095	15.82
263.566	15.63
264.037	17.76
264.508	17.43
264.979	16.74
265.449	16.9
265.92	17.17
266.391	16.94
266.861	16.57
267.332	16.9
267.803	16.41
268.273	16.64
268.744	16.68
269.214	15.76
269.685	15.57
270.155	17.5
270.626	16.55
271.096	15.4
271.566	16.7
272.037	15.46
272.507	16.64
272.977	17.18
273.448	17.03
273.918	15.39
274.388	16.65
274.858	17.03
275.328	16.34
275.798	16.18
276.268	16.9
276.738	15.95
277.208	16.52
277.678	16.57
278.148	16.45
278.618	17.52
279.088	16.92
279.558	15.86
280.028	16.21
280.498	16.36
280.968	16.66
281.437	16.88
281.907	16.1
282.377	16.04
282.847	16.45
283.316	15.18
283.786	15.79
284.255	16.19
284.725	15.2
285.194	14.88
285.664	16.15
286.133	15.09
286.603	15.9
287.072	16.64
287.542	15
288.011	15.38
288.48	15.15
288.95	15.15
289.419	15.71
289.888	15.23
290.357	15.32
290.827	15.35
291.296	15.22
291.765	15.37
292.234	15.77
292.703	16.02
293.172	16.24
293.641	15.02
294.11	16.02
294.579	15.72
295.048	15.47
295.517	15.3
295.986	15.34
296.455	16.18
296.923	16.12
297.392	14.86
297.861	16.77
298.33	15.03
298.798	15.34
299.267	16.25
299.736	15.26
300.204	16.42
300.673	15.21
301.141	15.84
301.61	16.04
302.079	15.34
302.547	15.36
303.015	14.56
303.484	15.2
303.952	14.91
304.421	16.12
304.889	15.94
305.357	14.97
305.825	15.11
306.294	15.18
306.762	14.62
307.23	15.99
307.698	15.59
308.166	15.18
308.634	15.33
309.103	15.08
309.571	15.84
310.039	15.04
310.507	15.82
310.975	16.02
311.442	15.12
311.91	15.48
312.378	14.69
312.846	16.42
313.314	15.1
313.782	14.74
314.249	14.98
314.717	15
315.185	14.91
315.652	15.55
316.12	15.73
316.588	15.02
317.055	15.08
317.523	15.35
317.99	15.59
318.458	14.49
318.925	15.9
319.393	15.5
319.86	16.31
320.328	15.73
320.795	16.46
321.262	15.65
321.73	16.49
322.197	17.25
322.664	17.59
323.131	17.09
323.598	18.61
324.066	17.43
324.533	19.47
325	19.68
325.467	19.75
325.934	21.5
326.401	22.57
326.868	23.15
327.335	24.31
327.802	25.31
328.269	25.04
328.735	27.32
329.202	28.05
329.669	29.33
330.136	29.39
330.603	31.45
331.069	31.58
331.536	31.99
332.003	31.97
332.469	33.42
332.936	33.43
333.402	34.09
333.869	32.58
334.336	34.81
334.802	34.52
335.268	34.63
335.735	34.83
336.201	36.2
336.668	36.1
337.134	35.44
337.6	34.46
338.067	34.89
338.533	35.48
338.999	33.32
339.465	34.47
339.931	34.93
340.398	34.54
340.864	34.33
341.33	34.27
341.796	34.87
342.262	34.06
342.728	33.96
343.194	34.28
343.66	34.31
344.126	33.4
344.592	34.67
345.057	33.46
345.523	34.3
345.989	33.37
346.455	33.04
346.921	34.07
347.386	33.87
347.852	34.45
348.318	33.66
348.783	34.57
349.249	33.11
349.714	33.71
350.18	35.17
350.645	32.53
351.111	34.87
351.576	33.46
352.042	33.08
352.507	33.4
352.973	33.05
353.438	31.77
353.903	33.15
354.369	33.84
354.834	34.4
355.299	33.19
355.764	32.95
356.229	32.85
356.695	30.71
357.16	32.03
357.625	32.59
358.09	31.96
358.555	32.24
359.02	33.02
359.485	32.23
359.95	31.4
360.415	31.98
360.879	32.56
361.344	31.43
361.809	32.61
362.274	31.77
362.739	33.11
363.203	34.07
363.668	33.22
364.133	31.03
364.597	32.42
365.062	31.8
365.527	33.54
365.991	32.71
366.456	31.79
366.92	32.01
367.385	31.64
367.849	32.94
368.314	32.58
368.778	32
369.242	33.31
369.707	31.92
370.171	31.12
370.635	33.43
371.1	34.08
371.564	33.29
372.028	32.41
372.492	30.83
372.956	31.35
373.42	32.58
373.884	31.45
374.348	32.28
374.812	32.59
375.276	31.58
375.74	32.42
376.204	31.46
376.668	31.06
377.132	30.96
377.596	31.56
378.06	33.11
378.524	29.88
378.987	32.12
379.451	32.05
379.915	31.25
380.378	32.42
380.842	32.67
381.306	31.65
381.769	31.8
382.233	32.35
382.696	31.88
383.16	32.02
383.623	32.5
384.087	31.81
384.55	32.64
385.014	31.57
385.477	31.91
385.94	31.47
386.404	32.93
386.867	31.09
387.33	30.41
387.793	32.55
388.256	32.42
388.72	32.34
389.183	32.36
389.646	31.88
390.109	32.78
390.572	30.63
391.035	32.77
391.498	31.41
391.961	31.23
392.424	31.44
392.887	32.27
393.35	31.91
393.812	32.06
394.275	31.19
394.738	31.8
395.201	30.97
395.664	31.76
396.126	30.37
396.589	30.86
397.052	33.82
397.514	32.55
397.977	30.05
398.439	30.91
398.902	30.29
399.364	31.33
399.827	31.53
400.289	31.67
400.752	30.62
401.214	32.22
401.676	33.47
402.139	31.21
402.601	30.46
403.063	32.07
403.525	30.08
403.988	29.19
404.45	30
404.912	29.85
405.374	31.82
405.836	29.59
406.298	29.68
406.76	30.66
407.222	28.46
407.684	29.57
408.146	29.5
408.608	28.88
409.07	29.26
409.532	30.5
409.994	29.47
410.456	31.26
410.917	29.43
411.379	30.83
411.841	29.56
412.303	29.67
412.764	29.36
413.226	31.11
413.687	29.03
414.149	30.49
414.611	30.32
415.072	29.61
415.534	29.83
415.995	30.6
416.457	29.83
416.918	30.96
417.379	31.05
417.841	30.74
418.302	31.15
418.763	31.07
419.225	31.63
419.686	29.68
420.147	31.39
420.608	31.26
421.069	31.84
421.53	32.01
421.991	30.54
422.453	30.97
422.914	32.3
423.375	29.93
423.836	31.14
424.297	32.45
424.757	31.85
425.218	32.71
425.679	30.73
426.14	33.34
426.601	32.52
427.062	30.91
427.522	34.1
427.983	31.61
428.444	30.94
428.904	33.4
429.365	32.65
429.826	32.3
430.286	32.6
430.747	31.22
431.207	32.85
431.668	31.77
432.128	32.82
432.589	33.62
433.049	34.9
433.509	31.61
433.97	32.45
434.43	32.12
434.89	34.68
435.351	33.38
435.811	33.16
436.271	31.65
436.731	32.68
437.191	32.93
437.651	33.3
438.112	35.4
438.572	33.29
439.032	33.91
439.492	32.37
439.952	34.37
440.412	32
440.871	33.36
441.331	33.09
441.791	33.57
442.251	34.97
442.711	34.62
443.171	36.02
443.63	35.24
444.09	34.26
444.55	33.15
445.009	34.63
445.469	34.94
445.929	32.7
446.388	34.72
446.848	34.92
447.307	33.46
447.767	34.14
448.226	33.34
448.686	33.7
449.145	36.13
449.604	33.02
450.064	34
450.523	33.1
450.982	33.66
451.442	33.31
451.901	34.46
452.36	33.95
452.819	35.03
453.278	32.05
453.737	35.54
454.197	33.36
454.656	35.99
455.115	35.53
455.574	35.24
456.033	35.23
456.492	34.25
456.95	33.72
457.409	34.93
457.868	35.26
458.327	34.54
458.786	35.14
459.245	35.77
459.703	34.36
460.162	35.3
460.621	35.08
461.079	32.47
461.538	34.38
461.997	34.99
462.455	33.98
462.914	34.21
463.372	31.69
463.831	36.22
464.289	34.1
464.748	34.81
465.206	34.81
465.664	35.55
466.123	35.2
466.581	33.48
467.039	34.09
467.497	35.66
467.956	37.01
468.414	31.52
468.872	34.47
469.33	32.19
469.788	33.45
470.246	34.95
470.704	33.32
471.162	35.21
471.62	35.06
472.078	33.22
472.536	35.74
472.994	35.26
473.452	35.35
473.91	34.16
474.368	33.32
474.826	33.39
475.283	34.49
475.741	34.62
476.199	31.48
476.656	34
477.114	36.65
477.572	33.17
478.029	34
478.487	34.66
478.944	36.5
479.402	34.6
479.859	33.8
480.317	35.91
480.774	35.01
481.232	36.29
481.689	34.44
482.146	34.23
482.604	35.05
483.061	32.28
483.518	35.23
483.975	35.77
484.433	31.96
484.89	34.58
485.347	36.38
485.804	32.23
486.261	36.37
486.718	35.43
487.175	34.56
487.632	34.67
488.089	33.5
488.546	32.66
489.003	34.18
489.46	34.96
489.917	35.48
490.373	34.53
490.83	32.49
491.287	32.62
491.744	32.93
492.2	37.08
492.657	34.52
493.114	34.54
493.57	36.97
494.027	34.27
494.484	36.17
494.94	34.95
495.397	35.99
495.853	34.74
496.31	32.24
496.766	34.62
497.222	34.05
497.679	33.85
498.135	33.37
498.591	32.36
499.048	32.01
499.504	34.93
499.96	34.57
500.416	34.07
500.872	32.54
501.329	35.82
501.785	33.51
502.241	35.34
502.697	34.98
503.153	32.68
503.609	33.51
504.065	34.28
504.521	32.48
504.977	32.96
505.432	34.69
505.888	35.58
506.344	34.39
506.8	34.7
507.256	34.99
507.711	34.92
508.167	31.87
508.623	35.68
509.078	34.35
509.534	33.9
509.99	33.89
510.445	35.48
510.901	35.38
511.356	33.49
511.812	31.84
512.267	36.96
512.722	33.62
513.178	34.55
513.633	34.99
514.089	34.61
514.544	34.74
514.999	35.38
515.454	31.84
515.91	34.67
516.365	32.67
516.82	35.98
517.275	34.8
517.73	33.68
518.185	33.91
518.64	34.98
519.095	34.74
519.55	33.4
520.005	35.4
520.46	32.54
520.915	34.45
521.37	33.07
521.825	32.8
522.28	32.99
522.734	35.15
523.189	34.49
523.644	32.58
524.099	33.34
524.553	34.57
525.008	32.14
525.462	34.48
525.917	32.1
526.372	33.99
526.826	32.75
527.281	36.73
527.735	32.16
528.19	32.73
528.644	32.98
529.098	33.06
529.553	33.72
530.007	33.87
530.461	33.26
530.916	33.5
531.37	32.89
531.824	34.02
532.278	31.68
532.732	34.49
533.186	32.74
533.641	34.78
534.095	33.72
534.549	33.66
535.003	34.5
535.457	32.83
535.911	34.82
536.365	33.68
536.818	30.96
537.272	34.32
537.726	33.12
538.18	32.34
538.634	34.14
539.087	32.87
539.541	33.09
539.995	33.03
540.449	32.72
540.902	34.93
541.356	32.57
541.809	32.71
542.263	32.7
542.716	32.54
543.17	33.27
543.623	32.64
544.077	33.22
544.53	34.1
544.984	31.22
545.437	31.71
545.89	34.79
546.344	33.37
546.797	32.25
547.25	32.33
547.703	32.21
548.157	34.32
548.61	31.84
549.063	32.42
549.516	32.96
549.969	32.11
550.422	34.7
550.875	32.56
551.328	33.66
551.781	33.73
552.234	32.19
552.687	32.21
553.14	34.58
553.592	32.78
554.045	34.65
554.498	33.53
554.951	32.44
555.404	33.1
555.856	32.32
556.309	33.62
556.762	33.61
557.214	33.12
557.667	32.07
558.119	33.03
558.572	33.6
559.024	31.71
559.477	33.94
559.929	32.58
560.382	31.6
560.834	33.5
561.286	33.11
561.739	33.14
562.191	32.71
562.643	32.39
563.095	33.84
563.548	33.32
564	33.88
564.452	33.89
564.904	32.49
565.356	33.28
565.808	32.51
566.26	32.42
566.712	32.51
567.164	33.37
567.616	33.34
568.068	32.69
568.52	33.25
568.972	33.12
569.424	32.94
569.876	32.07
570.327	33.57
570.779	32.8
571.231	33.35
571.682	33.48
572.134	33.06
572.586	33.27
573.037	33.17
573.489	33.16
573.941	33
574.392	33.9
574.844	34.24
575.295	33.4
575.746	32.27
576.198	33.08
576.649	31.36
577.101	34.27
577.552	32.6
578.003	32.27
578.454	32.28
578.906	33.91
579.357	33.37
579.808	33.26
580.259	33.84
580.71	32.61
581.161	32.83
581.612	32.89
582.064	32.78
582.515	32.31
582.965	33.47
583.416	32.87
583.867	32.86
584.318	33.73
584.769	32.45
585.22	33.75
585.671	34.22
586.122	33.87
586.572	32.77
587.023	33.08
587.474	33.52
587.924	33.84
588.375	33.72
588.826	32.77
589.276	33.38
589.727	33.32
590.177	32.24
590.628	34.23
591.078	32.62
591.529	32.39
591.979	33.31
592.429	31.94
592.88	33.93
593.33	32.23
593.78	32.98
594.231	33.54
594.681	33.23
595.131	32.06
595.581	32.63
596.031	32.74
596.481	34.31
596.932	32.29
597.382	33.75
597.832	33.13
598.282	33.28
598.732	34.14
599.182	32.67
599.632	32.81
600.081	33.86
600.531	32.32
600.981	32.45
601.431	32.02
601.881	33.21
602.33	33.31
602.78	32.2
603.23	33.74
603.679	32.43
604.129	34.15
604.579	33.14
605.028	32.81
605.478	32.68
605.927	33.15
606.377	32.1
606.826	33.25
607.276	34.1
607.725	33.33
608.175	34.14
608.624	32.54
609.073	31.93
609.522	33.33
609.972	32.72
610.421	32.41
610.87	32.88
611.319	33.82
611.768	33.03
612.218	33.21
612.667	33.24
613.116	34.33
613.565	32.15
614.014	33.03
614.463	33.87
614.912	33.21
615.361	31.97
615.81	33.56
616.258	32.09
616.707	32.91
617.156	32.16
617.605	33.27
618.054	32.19
618.502	32.48
618.951	33.39
619.4	32.95
619.848	33.09
620.297	32.82
620.745	33.41
621.194	32.73
621.642	32.05
622.091	32.89
622.539	33.2
622.988	31.06
623.436	32.51
623.885	32.55
624.333	32.63
624.781	33.19
625.23	32.02
625.678	32.77
626.126	32.15
626.574	32.52
627.022	31.89
627.471	32.27
627.919	33.02
628.367	33.57
628.815	33.21
629.263	32.55
629.711	31.81
630.159	32.27
630.607	32.72
631.055	33.04
631.503	32.63
631.95	32.81
632.398	32.55
632.846	31.55
633.294	33.36
633.742	31.64
634.189	32.36
634.637	32.63
635.085	32.29
635.532	31.43
635.98	33
636.427	32.38
636.875	33.36
637.323	32.64
637.77	31.77
638.217	32.46
638.665	31.57
639.112	33.49
639.56	31.38
640.007	33.46
640.454	32.57
640.902	32.14
641.349	32.77
641.796	33.41
642.243	32.72
642.69	31.36
643.138	32.76
643.585	33.32
644.032	32.8
644.479	32.37
644.926	31.54
645.373	32.53
645.82	32.78
646.267	31.34
646.714	33.01
647.161	32.23
647.607	33.22
648.054	33.06
648.501	32.42
648.948	32.25
649.395	33.31
649.841	32.29
650.288	33.2
650.735	32.04
651.181	32.62
651.628	34.21
652.075	31.81
652.521	32.73
652.968	32.57
653.414	32.77
653.861	33.15
654.307	32.11
654.753	32.6
655.2	32.69
655.646	32.45
656.092	33.41
656.539	32.3
656.985	33.22
657.431	32.35
657.877	32.75
658.324	31.13
658.77	31.58
659.216	33.11
659.662	32.22
660.108	32.62
660.554	32.06
661	33.41
661.446	32.21
661.892	32.63
662.338	32.34
662.784	33.55
663.23	32.45
663.675	32.65
664.121	32.17
664.567	32.11
665.013	32
665.458	32.35
665.904	32.72
666.35	32
666.795	31.84
667.241	33.73
667.687	32.96
668.132	32.55
668.578	32.44
669.023	32.72
669.469	32.74
669.914	31.52
670.359	32.55
670.805	32.69
671.25	33.23
671.695	32.11
672.141	32.34
672.586	32.16
673.031	33.17
673.476	33.25
673.922	32.89
674.367	33.28
674.812	32.75
675.257	32.09
675.702	33.33
676.147	32.29
676.592	32.58
677.037	32.5
677.482	32.92
677.927	32.39
678.372	33.14
678.817	33.15
679.261	32.22
679.706	33.23
680.151	32.45
680.596	33.87
681.04	32.5
681.485	33.64
681.93	32.48
682.374	32.67
682.819	32.43
683.264	32.21
683.708	32.46
684.153	32.95
684.597	31.42
685.042	32.71
685.486	32.38
685.93	32.9
686.375	31.81
686.819	32.31
687.263	32.41
687.708	32.06
688.152	33.37
688.596	32.86
689.04	32.5
689.485	32.7
689.929	32.71
690.373	33.39
690.817	32.94
691.261	31.86
691.705	32.72
692.149	32.86
692.593	32.35
693.037	32.77
693.481	32.55
693.925	32.7
694.369	33.24
694.812	31.72
695.256	32.62
695.7	32.49
696.144	33.03
696.587	32.24
697.031	32.37
697.475	32.63
697.918	32.37
698.362	33.2
698.806	32.5
699.249	33.09
699.693	32.64
700.136	33
700.58	33.06
701.023	31.94
701.466	31.72
701.91	32.77
702.353	32.79
702.796	33.12
703.24	32.77
703.683	33.05
704.126	33.15
704.569	32.14
705.013	32.73
705.456	32.77
705.899	32.62
706.342	32.77
706.785	31.49
707.228	33.31
707.671	32.35
708.114	33.43
708.557	32.4
709	32.75
709.443	32.45
709.886	32.07
710.328	33.04
710.771	32.38
711.214	32.02
711.657	32.65
712.099	33.01
712.542	32.98
712.985	33.34
713.427	32.63
713.87	33.36
714.313	32.39
714.755	32.75
715.198	33.15
715.64	32.74
716.083	33.05
716.525	32.59
716.967	31.95
717.41	32.54
717.852	33.21
718.295	32.4
718.737	32.68
719.179	31.83
719.621	32.64
720.063	33.35
720.506	31.92
720.948	32.77
721.39	31.96
721.832	32.15
722.274	32.99
722.716	32.62
723.158	32.62
723.6	32.21
724.042	32.12
724.484	32
724.926	32.85
725.368	31.98
725.81	32.47
726.251	31.93
726.693	31.99
727.135	32.58
727.577	32.8
728.018	32.73
728.46	31.93
728.902	32.75
729.343	33.23
729.785	32.78
730.226	33.19
730.668	32.01
731.109	33.55
731.551	32.48
731.992	31.88
732.434	31.59
732.875	32.23
733.316	32.72
733.758	32.17
734.199	33.04
734.64	32.47
735.081	32.98
735.523	32.24
735.964	32.25
736.405	32.57
736.846	32.41
737.287	31.94
737.728	32.96
738.169	32.16
738.61	32.13
739.051	32.67
739.492	32.02
739.933	32.87
740.374	32.49
740.815	32.62
741.256	32.2
741.696	33.04
742.137	32.45
742.578	33.16
743.019	32.36
743.459	32.3
743.9	33.28
744.341	31.88
744.781	33.64
745.222	32.59
745.662	32.52
746.103	32.51
746.543	32.27
746.984	32.82
747.424	32.67
747.865	31.97
748.305	32.35
748.745	32.14
749.186	32.27
749.626	32.51
750.066	32.36
750.506	32.56
750.947	33.1
751.387	33.19
751.827	32.78
752.267	33.05
752.707	32.96
753.147	32.62
753.587	33.01
754.027	32.4
754.467	32.79
754.907	33
755.347	32.87
755.787	32.28
756.227	32.74
756.667	32.74
757.107	32.63
757.546	33.21
757.986	32.69
758.426	32.7
758.865	32.57
759.305	31.93
759.745	32.85
760.184	33.41
760.624	33.47
761.063	32.68
761.503	33.06
761.943	32.67
762.382	32.61
762.821	32.72
763.261	33.57
763.7	32.69
764.14	32.24
764.579	32.88
765.018	33.25
765.457	33.01
765.897	33.17
766.336	32.56
766.775	32.79
767.214	32.72
767.653	31.77
768.092	33.35
768.531	32.6
768.97	32.8
769.409	32.87
769.848	32.73
770.287	32.19
770.726	33.79
771.165	32.84
771.604	32.67
772.043	32.48
772.482	33.39
772.92	32.39
773.359	33.16
773.798	32.99
774.237	33.3
774.675	32.97
775.114	32.6
775.553	33.09
775.991	32.75
776.43	32.69
776.868	32.82
777.307	32.77
777.745	32.97
778.184	33.28
778.622	32.94
779.06	32.58
779.499	33.25
779.937	33.65
780.375	32.1
780.814	33.45
781.252	32.6
781.69	32.6
782.128	32.23
782.566	32.68
783.004	32.86
783.443	32.72
783.881	33.4
784.319	33
784.757	33.52
785.195	32.96
785.633	32.74
786.071	32.27
786.508	32.77
786.946	32.91
787.384	32.99
787.822	32.98
788.26	33.59
788.697	32.26
789.135	32.14
789.573	32.83
790.011	33.33
790.448	33.17
790.886	32.99
791.323	33.87
791.761	32.09
792.198	32.68
792.636	32.66
793.073	32.82
793.511	32.96
793.948	33.27
794.386	32.44
794.823	33.52
795.26	33.51
795.698	33.2
796.135	32.78
796.572	33.24
797.009	33.23
797.446	32.61
797.884	32.69
798.321	33.02
798.758	33.4
799.195	33.32
799.632	33.36
800.069	33.66
800.506	33.13
800.943	33.72
801.38	33.24
801.817	33.37
802.254	33.38
802.69	32.92
803.127	33.62
803.564	33.4
804.001	33.53
804.438	33.38
804.874	32.8
805.311	32.93
805.748	33.18
806.184	33.1
806.621	32.88
807.057	33.08
807.494	32.66
807.93	33.18
808.367	33.05
808.803	33.29
809.24	33.21
809.676	33.75
810.112	33.04
810.549	33.04
810.985	33.74
811.421	33.43
811.857	33.59
812.294	33.14
812.73	33.5
813.166	33.31
813.602	32.93
814.038	32.93
814.474	33.6
814.91	33.26
815.346	33.1
815.782	33.24
816.218	33.44
816.654	32.7
817.09	33.43
817.526	33.8
817.962	32.84
818.398	33.22
818.833	33.19
819.269	33.33
819.705	33.2
820.141	33.38
820.576	34.14
821.012	33.6
821.447	33.42
821.883	33.02
822.319	34.05
822.754	33.58
823.19	33.28
823.625	32.89
824.061	33.78
824.496	33.01
824.931	33.27
825.367	34
825.802	33.11
826.237	33.98
826.673	33.07
827.108	33.32
827.543	33.72
827.978	33.48
828.413	33.33
828.849	33.78
829.284	33.78
829.719	33.29
830.154	33.19
830.589	33.78
831.024	33.58
831.459	33.23
831.894	33.13
832.329	33.82
832.763	33.35
833.198	33.77
833.633	33.04
834.068	33.31
834.503	33.73
834.937	33.65
835.372	33.47
835.807	33.9
836.241	33.06
836.676	33.3
837.111	33.71
837.545	34.16
837.98	33.81
838.414	33.21
838.849	34.22
839.283	33.68
839.717	33.48
840.152	34.06
840.586	34.08
841.021	33.19
841.455	33.73
841.889	33.27
842.323	33.82
842.758	33.75
843.192	33.96
843.626	33.75
844.06	33.73
844.494	34.03
844.928	34.01
845.362	33.57
845.796	33.5
846.23	33.9
846.664	33.85
847.098	34.3
847.532	33.68
847.966	33.83
848.4	33.69
848.834	34.1
849.267	34.16
849.701	33.89
850.135	34.41
850.569	33.78
851.002	34.32
851.436	34.13
851.87	34.07
852.303	34.16
852.737	34.17
853.17	34.45
853.604	33.78
854.037	34.3
854.471	34.27
854.904	34.35
855.337	34.02
855.771	34.1
856.204	34.21
856.637	34.47
857.071	33.83
857.504	34.05
857.937	34.57
858.37	33.79
858.804	34.22
859.237	34.56
859.67	34.73
860.103	34.03
860.536	34.66
860.969	34.01
861.402	34.74
861.835	34.09
862.268	33.48
862.701	34.24
863.134	34.27
863.566	34.12
863.999	34.46
864.432	34.38
864.865	34.4
865.298	34.46
865.73	34.56
866.163	33.93
866.596	34.53
867.028	34.6
867.461	34.25
867.893	34.88
868.326	34.48
868.758	34.22
869.191	34.8
869.623	34.02
870.056	34.1
870.488	34.48
870.92	33.93
871.353	34.18
871.785	34.56
872.217	33.83
872.65	34.96
873.082	34.55
873.514	34.49
873.946	34.38
874.378	34.11
874.81	34.95
875.243	34.19
875.675	34.58
876.107	34.98
876.539	34.2
876.971	34.68
877.403	34.88
877.834	34.61
878.266	34.66
878.698	34.66
879.13	34.99
879.562	34.08
879.994	34.48
880.425	34.05
880.857	34.36
881.289	34.2
881.72	34.81
882.152	34.47
882.584	35.05
883.015	34.45
883.447	34.42
883.878	34.79
884.31	34.66
884.741	34.73
885.173	34.72
885.604	34.77
886.035	35.11
886.467	34.98
886.898	34.92
887.329	34.55
887.76	35
888.192	34.93
888.623	35.34
889.054	34.35
889.485	34.8
889.916	34.21
890.347	34.94
890.778	34.46
891.209	35.15
891.64	34.68
892.071	35.23
892.502	35.1
892.933	34.98
893.364	35.65
893.795	35.47
894.226	34.9
894.657	34.72
895.087	34.94
895.518	35.39
895.949	35.3
896.38	35.05
896.81	34.89
897.241	34.99
897.671	35.08
898.102	35.23
898.533	35.28
898.963	34.91
899.394	35.53
899.824	35.39
900.254	35.69
900.685	35.84
901.115	34.83
901.546	35.61
901.976	35.27
902.406	35.48
902.836	34.95
903.267	35.5
903.697	35.71
904.127	35.38
904.557	35.6
904.987	35.74
905.417	35.64
905.847	35.31
906.277	35.54
906.707	35.39
907.137	35.62
907.567	35.61
907.997	35.55
908.427	35.8
908.857	35.38
909.287	36.23
909.717	35.41
910.146	35.27
910.576	35.67
911.006	35.27
911.436	35.39
911.865	35.71
912.295	35.29
912.724	35.58
913.154	35.52
913.584	35.66
914.013	35.75
914.443	35.32
914.872	35.77
915.302	35.92
915.731	35.33
916.16	35.69
916.59	35.44
917.019	35.9
917.448	35.92
917.878	36
918.307	36.31
918.736	35.87
919.165	35.76
919.594	35.43
920.023	35.85
920.452	35.27
920.882	35.76
921.311	35.77
921.74	35.83
922.169	35.43
922.597	35.96
923.026	35.6
923.455	35.46
923.884	36.24
924.313	36.16
924.742	35.15
925.171	35.93
925.599	35.71
926.028	36
926.457	35.74
926.885	35.53
927.314	35.89
927.743	36.07
928.171	35.58
928.6	35.92
929.028	36
929.457	35.5
929.885	35.73
930.314	35.39
930.742	35.94
931.17	36.15
931.599	35.98
932.027	36.24
932.455	35.62
932.884	36.07
933.312	35.52
933.74	35.98
934.168	36.12
934.596	35.86
935.025	35.43
935.453	35.49
935.881	36.38
936.309	36.06
936.737	36.14
937.165	35.75
937.593	36.16
938.021	36.37
938.449	36.16
938.876	36.28
939.304	36.13
939.732	35.68
940.16	35.81
940.588	36.26
941.015	37.29
941.443	37.05
941.871	36.23
942.298	36.3
942.726	35.94
943.154	36.13
943.581	36.09
944.009	36.36
944.436	36.06
944.864	35.82
945.291	35.84
945.718	36.08
946.146	36.06
946.573	36.52
947.001	36.24
947.428	35.99
947.855	36.48
948.282	35.85
948.71	37.64
949.137	36.6
949.564	36.32
949.991	36.27
950.418	36.22
950.845	35.82
951.272	36.6
951.699	36.15
952.126	36.52
952.553	36.53
952.98	36.02
953.407	36.77
953.834	36.81
954.261	36.45
954.688	36.67
955.114	36.29
955.541	36.77
955.968	36.26
956.395	36.25
956.821	37.24
957.248	36.84
957.674	36.41
958.101	36.51
958.528	36.84
958.954	37.25
959.381	36.55
959.807	36.79
960.234	36.56
960.66	36.83
961.086	36.54
961.513	36.55
961.939	36.74
962.365	36.38
962.792	36.23
963.218	36.98
963.644	36.94
964.07	37.03
964.496	37.08
964.923	36.88
965.349	36.77
965.775	36.72
966.201	37.3
966.627	36.7
967.053	36.69
967.479	36.99
967.905	37
968.331	36.59
968.756	37.33
969.182	36.77
969.608	37.22
970.034	36.95
970.46	36.74
970.885	37
971.311	36.9
971.737	37.04
972.162	37.38
972.588	37.04
973.014	36.97
973.439	36.54
973.865	37.09
974.29	36.93
974.716	36.82
975.141	37.14
975.567	37.67
975.992	37.13
976.417	36.9
976.843	37.27
977.268	37.04
977.693	37.28
978.119	37.04
978.544	37.51
978.969	37.54
979.394	37.25
979.819	36.99
980.244	37.48
980.669	37.29
981.095	37.54
981.52	37.22
981.945	37.38
982.369	37.1
982.794	37.61
983.219	37.25
983.644	37.53
984.069	37.72
984.494	37.22
984.919	37.18
985.343	37.67
985.768	37.35
986.193	37.36
986.618	37.61
987.042	37.54
987.467	37.57
987.891	37.41
988.316	37.7
988.741	37.84
989.165	37.74
989.59	37.78
990.014	37.84
990.438	37.25
990.863	37.88
991.287	37.6
991.712	38.08
992.136	37.38
992.56	37.84
992.984	37.67
993.409	38.07
993.833	37.61
994.257	38.19
994.681	37.58
995.105	37.88
995.529	37.89
995.953	38
996.377	37.74
996.801	38.07
997.225	37.94
997.649	38.34
998.073	38.13
998.497	37.41
998.921	38.14
999.345	38
999.769	37.78
1000.192	38.53
1000.616	38.33
1001.04	38.21
1001.464	38.81
1001.887	38.47
1002.311	37.96
1002.734	38.42
1003.158	38.13
1003.582	38.3
1004.005	38.21
1004.429	38.51
1004.852	38.44
1005.275	38.46
1005.699	38.03
1006.122	38.31
1006.546	38.57
1006.969	38.34
1007.392	38.28
1007.815	38.54
1008.239	38.59
1008.662	38.73
1009.085	38.36
1009.508	39.06
1009.931	38.51
1010.354	38.93
1010.778	38.74
1011.201	38.66
1011.624	38.59
1012.047	38.85
1012.469	38.55
1012.892	38.48
1013.315	38.22
1013.738	38.5
1014.161	38.59
1014.584	38.87
1015.007	38.89
1015.429	38.83
1015.852	39
1016.275	38.84
1016.697	39.1
1017.12	38.66
1017.543	38.75
1017.965	38.61
1018.388	39.37
1018.81	39
1019.233	38.59
1019.655	38.97
1020.078	39.05
1020.5	38.91
1020.922	38.49
1021.345	39.04
1021.767	39.53
1022.189	38.85
1022.612	39.37
1023.034	39.28
1023.456	39.3
1023.878	38.9
1024.301	39.27
1024.723	38.56
1025.145	39.49
1025.567	39.18
1025.989	39.4
1026.411	39.13
1026.833	39.51
1027.255	39.69
1027.677	39.22
1028.099	39.47
1028.52	39.05
1028.942	39.47
1029.364	39.23
1029.786	39.22
1030.208	40.12
1030.629	39.88
1031.051	39.43
1031.473	39.68
1031.894	39.5
1032.316	39.29
1032.738	39.8
1033.159	39.34
1033.581	39.6
1034.002	39.28
1034.424	39.31
1034.845	39.45
1035.267	39.58
1035.688	39.6
1036.109	39.08
1036.531	39.98
1036.952	40.22
1037.373	39.54
1037.794	39.51
1038.216	39.7
1038.637	40.71
1039.058	39.25
1039.479	39.8
1039.9	39.77
1040.321	39.24
1040.742	39.71
1041.163	39.88
1041.584	39.56
1042.005	39.27
1042.426	39.56
1042.847	39.8
1043.268	39.31
1043.689	40.33
1044.11	40.33
1044.53	41.13
1044.951	40.23
1045.372	39.69
1045.793	40.4
1046.213	40.81
1046.634	39.66
1047.055	39.89
1047.475	39.92
1047.896	39.52
1048.316	40.65
1048.737	40.02
1049.157	40.01
1049.578	40
1049.998	40.17
1050.419	40.21
1050.839	40.1
1051.259	39.36
1051.68	40.45
1052.1	39.79
1052.52	40.19
1052.94	40.57
1053.361	39.95
1053.781	39.61
1054.201	40.67
1054.621	40.35
1055.041	40.46
1055.461	39.92
1055.881	40.07
1056.301	40.67
1056.721	40.43
1057.141	41.19
1057.561	40.76
1057.981	40.78
1058.401	39.81
1058.82	40.75
1059.24	40.6
1059.66	40.98
1060.08	41.9
1060.499	41.02
1060.919	40.74
1061.339	41.43
1061.758	40.37
1062.178	40.82
1062.598	40.94
1063.017	41.25
1063.437	40.22
1063.856	40.69
1064.276	40.27
1064.695	41.16
1065.114	40.97
1065.534	41.56
1065.953	41.23
1066.372	40.97
1066.792	40.12
1067.211	40.58
1067.63	40.83
1068.049	41.22
1068.469	40.56
1068.888	40.62
1069.307	40.82
1069.726	40.69
1070.145	40.92
1070.564	41.16
1070.983	40.77
1071.402	42.24
1071.821	40.41
1072.24	40.92
1072.659	40.35
1073.078	40.41
1073.496	41.31
1073.915	39.95
1074.334	41.45
1074.753	41.2
1075.171	42.2
1075.59	41.3
1076.009	40.98
1076.427	40.66
1076.846	41.88
1077.265	41.01
1077.683	41.12
1078.102	41.48
1078.52	40.47
1078.939	40.51
1079.357	40.02
1079.776	42.29
1080.194	42.05
1080.612	42.07
1081.031	41.88
1081.449	40.59
1081.867	40.82
1082.285	41.89
1082.704	41.04
1083.122	40.71
1083.54	41.44
1083.958	40.75
1084.376	41.64
1084.794	41.69
1085.212	41.87
1085.63	41.24
1086.048	41.98
1086.466	40.54
1086.884	40.14
1087.302	41.18
1087.72	41.46
1088.138	40.88
1088.555	42.39
1088.973	42.39
1089.391	42.43
1089.809	42.57
1090.226	42.73
1090.644	40.98
1091.062	42.3
1091.479	40.44
1091.897	41.32
1092.314	40.4
1092.732	42.09
1093.15	40.92
1093.567	41.64
1093.984	43.24
1094.402	40.9
1094.819	42.96
1095.237	42.33
1095.654	43.35
1096.071	40.53
1096.488	41.98
1096.906	40.25
1097.323	42.04
1097.74	41.52
1098.157	40.07
1098.574	40.86
1098.991	41.46
1099.409	43.32
1099.826	40.82
1100.243	42.49
1100.66	41.69
1101.077	41.31
1101.494	40.85
1101.91	40.63
1102.327	41.71
1102.744	41.7
1103.161	42.47
1103.578	40.92
1103.994	41.2
1104.411	43.19
1104.828	41.96
1105.245	42.51
1105.661	41.64
1106.078	40.77
1106.494	41.51
1106.911	40.96
1107.328	39.3
1107.744	43.51
1108.161	43.33
1108.577	40.33
1108.993	44.08
1109.41	38.34
1109.826	40.42
1110.242	43.15
1110.659	39.91
1111.075	42.01
1111.491	41.78
1111.908	40.72
1112.324	40.25
1112.74	50.28
1113.156	37.86
1113.572	42.39
1113.988	42.46
1114.404	39.59
1114.82	44.61
1115.236	37.9
1115.652	38.86
1116.068	38
1116.484	42.12
1116.9	41.8
1117.316	43.28
1117.732	4.17
1118.147	72.92
1118.563	83.33
1118.979	183.33
