Data from JCR0011_Black1_Reflection_00001.txt Node
Date: Thu Jul 23 13:31:44 ACST 2020
User: Stacey Dix
Spectrometer: MAYP113282
Scans to average: 1
Trigger mode: 0
Integration Time (sec): 1.000000E-1
Electric dark correction enabled: true
Boxcar width: 0
XAxis mode: Wavelengths
Number of Pixels in Spectrum: 2068
>>>>>Begin Spectral Data<<<<<
198.791	-540.62
199.266	-73.53
199.74	-71.88
200.215	-81.25
200.69	45.25
201.164	56.9
201.639	32.87
202.114	51.7
202.588	32.91
203.063	42.36
203.537	34.67
204.012	41.13
204.486	28.79
204.961	34.78
205.435	24.96
205.909	36.17
206.384	43.3
206.858	43.36
207.332	38.67
207.807	40.18
208.281	39.88
208.755	25.85
209.229	36.04
209.703	31.93
210.177	34.12
210.651	32.47
211.126	36.38
211.6	32.42
212.074	37.21
212.548	24.64
213.021	33.69
213.495	30.05
213.969	28.6
214.443	31.29
214.917	26.09
215.391	28.36
215.864	26.18
216.338	30.72
216.812	29.01
217.286	24.32
217.759	27.63
218.233	24.84
218.706	22.15
219.18	26.9
219.654	18.95
220.127	23.49
220.6	26.44
221.074	22.74
221.547	14.66
222.021	19.74
222.494	20.35
222.967	20.52
223.441	21.25
223.914	19.8
224.387	17.1
224.86	17.67
225.334	18.82
225.807	18.22
226.28	17.28
226.753	17.03
227.226	16.43
227.699	15.4
228.172	14.7
228.645	13.44
229.118	13.69
229.591	15.08
230.064	13.02
230.537	12.99
231.01	12.09
231.482	12.96
231.955	13.37
232.428	11.94
232.901	11.35
233.373	12.12
233.846	10.5
234.319	10.77
234.791	11.21
235.264	10.52
235.736	10.72
236.209	10.13
236.681	10.5
237.154	10.69
237.626	10.34
238.099	10.12
238.571	9.96
239.044	9.78
239.516	9.26
239.988	10.03
240.46	8.81
240.933	9.12
241.405	9.31
241.877	8.54
242.349	9.75
242.821	8.6
243.293	8.77
243.765	9
244.237	9.11
244.71	8.88
245.181	8.88
245.653	9.19
246.125	9.77
246.597	8.37
247.069	8.83
247.541	8.22
248.013	8.56
248.485	8.35
248.956	9.04
249.428	8.4
249.9	8.98
250.371	8.78
250.843	8.29
251.315	8.06
251.786	7.99
252.258	8.05
252.729	8.07
253.201	7.91
253.672	7.6
254.144	7.24
254.615	7.15
255.086	7.68
255.558	7.22
256.029	7.68
256.5	7.3
256.972	7.69
257.443	7.09
257.914	7.44
258.385	7.39
258.856	7.46
259.327	7.11
259.799	6.96
260.27	7.68
260.741	7.57
261.212	6.93
261.683	7.82
262.154	7.16
262.624	6.86
263.095	7.38
263.566	6.41
264.037	7.1
264.508	6.96
264.979	7.08
265.449	6.91
265.92	7.38
266.391	7.27
266.861	7.38
267.332	6.97
267.803	7.14
268.273	6.87
268.744	6.46
269.214	7.1
269.685	7.27
270.155	6.62
270.626	7.54
271.096	7.71
271.566	7.26
272.037	6.97
272.507	7.23
272.977	7.42
273.448	7.46
273.918	7.51
274.388	7.12
274.858	8.07
275.328	7.13
275.798	7.69
276.268	7.8
276.738	7.19
277.208	7.46
277.678	7.87
278.148	8.42
278.618	7.34
279.088	7.53
279.558	6.74
280.028	7.18
280.498	7.09
280.968	7.1
281.437	7.26
281.907	7.25
282.377	7.04
282.847	6.66
283.316	7.15
283.786	7.1
284.255	7.15
284.725	6.93
285.194	6.91
285.664	6.37
286.133	6.95
286.603	6.89
287.072	7.25
287.542	6.81
288.011	6.55
288.48	6.76
288.95	7.07
289.419	6.67
289.888	7.38
290.357	7.02
290.827	6.73
291.296	6.78
291.765	6.64
292.234	6.65
292.703	6.3
293.172	6.92
293.641	6.46
294.11	6.42
294.579	6.47
295.048	6.71
295.517	7.36
295.986	6.91
296.455	6.88
296.923	6.66
297.392	6.89
297.861	6.48
298.33	6.15
298.798	6.79
299.267	6.63
299.736	7.15
300.204	6.68
300.673	7.1
301.141	6.53
301.61	6.51
302.079	7.29
302.547	6.55
303.015	6.35
303.484	6.63
303.952	6.83
304.421	6.51
304.889	6.34
305.357	7.04
305.825	6.99
306.294	6.45
306.762	6.49
307.23	7.02
307.698	6.81
308.166	6.58
308.634	6.84
309.103	6.58
309.571	6.85
310.039	6.85
310.507	6.5
310.975	6.98
311.442	6.81
311.91	6.48
312.378	6.74
312.846	6.38
313.314	6.73
313.782	6.42
314.249	6.55
314.717	7.45
315.185	6.45
315.652	6.27
316.12	6.99
316.588	6.16
317.055	6.68
317.523	6.57
317.99	6.87
318.458	6.4
318.925	6.78
319.393	6.77
319.86	6.86
320.328	6.42
320.795	6.73
321.262	7.28
321.73	7.1
322.197	6.56
322.664	6.25
323.131	6.85
323.598	6.94
324.066	6.82
324.533	7.18
325	7.29
325.467	6.98
325.934	6.88
326.401	7.49
326.868	6.87
327.335	7.18
327.802	7.92
328.269	7.31
328.735	7.93
329.202	7.96
329.669	7.41
330.136	7.75
330.603	7.66
331.069	7.91
331.536	7.59
332.003	7.29
332.469	7.41
332.936	7.8
333.402	7.68
333.869	8.02
334.336	7.58
334.802	7.58
335.268	7.07
335.735	8.15
336.201	8.33
336.668	8.38
337.134	8.37
337.6	8.13
338.067	8.5
338.533	7.58
338.999	7.93
339.465	8.44
339.931	8.05
340.398	7.41
340.864	8.26
341.33	7.92
341.796	7.54
342.262	8.07
342.728	7.68
343.194	8.42
343.66	8.62
344.126	7.76
344.592	7.84
345.057	7.94
345.523	8.04
345.989	7.84
346.455	7.54
346.921	7.97
347.386	7.65
347.852	7.76
348.318	7.42
348.783	8.02
349.249	7.59
349.714	7.82
350.18	7.82
350.645	8.15
351.111	7.7
351.576	8.11
352.042	7.65
352.507	7.86
352.973	8.46
353.438	7.65
353.903	8.43
354.369	7.96
354.834	7.86
355.299	7.61
355.764	8.23
356.229	7.37
356.695	7.85
357.16	7.96
357.625	7.57
358.09	8.56
358.555	7.66
359.02	8.18
359.485	7.99
359.95	8.41
360.415	8.37
360.879	8.03
361.344	8.43
361.809	7.98
362.274	8.36
362.739	8.32
363.203	8.74
363.668	8.45
364.133	8.37
364.597	8.27
365.062	8.63
365.527	8.61
365.991	8.78
366.456	8.52
366.92	8.41
367.385	8.6
367.849	8.49
368.314	8.42
368.778	8.7
369.242	8.1
369.707	8.24
370.171	8.94
370.635	9
371.1	7.7
371.564	8.43
372.028	9.18
372.492	8.56
372.956	8.59
373.42	8.65
373.884	8.6
374.348	8.52
374.812	8.4
375.276	8.77
375.74	8.87
376.204	9
376.668	9.31
377.132	9.01
377.596	8.53
378.06	8.58
378.524	8.52
378.987	9.02
379.451	8.51
379.915	8.93
380.378	9.02
380.842	8.96
381.306	8.55
381.769	8.66
382.233	9.17
382.696	8.42
383.16	8.82
383.623	8.5
384.087	9.12
384.55	9.29
385.014	8.7
385.477	8.36
385.94	8.88
386.404	9.16
386.867	8.25
387.33	8.7
387.793	8.84
388.256	9.34
388.72	8.43
389.183	9.06
389.646	8.91
390.109	9.28
390.572	9.41
391.035	8.75
391.498	9.26
391.961	8.96
392.424	8.81
392.887	8.81
393.35	8.73
393.812	9.06
394.275	8.4
394.738	8.83
395.201	8.88
395.664	9.08
396.126	9.21
396.589	9.07
397.052	8.59
397.514	9.59
397.977	8.72
398.439	9.17
398.902	8.45
399.364	8.81
399.827	9.19
400.289	9.13
400.752	9.19
401.214	9.31
401.676	8.7
402.139	9.06
402.601	9.27
403.063	9.18
403.525	8.13
403.988	8.73
404.45	9.43
404.912	8.69
405.374	9.09
405.836	8.92
406.298	8.8
406.76	9.18
407.222	9.05
407.684	9.53
408.146	9.18
408.608	8.76
409.07	9.48
409.532	8.96
409.994	8.96
410.456	9.87
410.917	9.18
411.379	8.73
411.841	9.09
412.303	8.94
412.764	9.48
413.226	8.86
413.687	9.19
414.149	9.7
414.611	8.63
415.072	8.92
415.534	9.58
415.995	9.12
416.457	9.04
416.918	9.95
417.379	9.47
417.841	9.06
418.302	8.92
418.763	8.98
419.225	9.69
419.686	9.12
420.147	9.25
420.608	9.52
421.069	9.1
421.53	9.19
421.991	9.28
422.453	9.06
422.914	9.27
423.375	9.27
423.836	9.58
424.297	8.81
424.757	9.43
425.218	9.13
425.679	9.22
426.14	9.17
426.601	8.99
427.062	9.55
427.522	9.53
427.983	9.42
428.444	9.39
428.904	9.96
429.365	10.09
429.826	9.73
430.286	9.6
430.747	9.83
431.207	9.46
431.668	10.21
432.128	10.49
432.589	11.45
433.049	10.11
433.509	10.82
433.97	10.54
434.43	10.24
434.89	10.03
435.351	9.93
435.811	10.82
436.271	10.43
436.731	9.83
437.191	10.56
437.651	9.98
438.112	10.88
438.572	10.66
439.032	9.35
439.492	10.92
439.952	10.07
440.412	10.41
440.871	11.02
441.331	10.55
441.791	10.35
442.251	10.05
442.711	10.49
443.171	10.83
443.63	9.75
444.09	11.09
444.55	10.32
445.009	10.79
445.469	10.76
445.929	10.59
446.388	10.8
446.848	11.01
447.307	10.96
447.767	10.64
448.226	10.59
448.686	9.59
449.145	9.8
449.604	9.83
450.064	10.76
450.523	10.35
450.982	10.88
451.442	9.86
451.901	10.91
452.36	10.41
452.819	10.19
453.278	10.92
453.737	9.86
454.197	10.47
454.656	10.49
455.115	10.74
455.574	9.64
456.033	11.25
456.492	10.22
456.95	11.24
457.409	11
457.868	10.62
458.327	10.26
458.786	11.59
459.245	9.88
459.703	11.07
460.162	10.73
460.621	10.65
461.079	10.16
461.538	11.11
461.997	10.41
462.455	10.54
462.914	11.27
463.372	11.15
463.831	10.93
464.289	10.96
464.748	11.42
465.206	11.06
465.664	10.63
466.123	10.76
466.581	12.17
467.039	11.22
467.497	11.34
467.956	11.05
468.414	10.93
468.872	11.27
469.33	11.79
469.788	10.15
470.246	10.87
470.704	11.43
471.162	10.72
471.62	10.97
472.078	10.76
472.536	10.71
472.994	10.94
473.452	10.2
473.91	11.71
474.368	11.36
474.826	10.88
475.283	11.35
475.741	11.19
476.199	11.58
476.656	11.39
477.114	11.18
477.572	11.51
478.029	12.07
478.487	11.23
478.944	11.27
479.402	11.21
479.859	11.34
480.317	11.13
480.774	11.02
481.232	11.05
481.689	10.78
482.146	10.5
482.604	11.12
483.061	11.39
483.518	10.71
483.975	11.81
484.433	11.06
484.89	11.66
485.347	10.69
485.804	10.73
486.261	10.95
486.718	10.71
487.175	11.86
487.632	11.39
488.089	11.86
488.546	11.36
489.003	11.16
489.46	11.09
489.917	11.52
490.373	11.18
490.83	11.31
491.287	11.9
491.744	12.28
492.2	11.84
492.657	10.94
493.114	10.68
493.57	11.05
494.027	11.04
494.484	12.5
494.94	10.07
495.397	12.31
495.853	11.81
496.31	11.51
496.766	11.28
497.222	12.03
497.679	11.4
498.135	11.16
498.591	11.57
499.048	11.96
499.504	11.38
499.96	11.51
500.416	10.93
500.872	11.63
501.329	11.09
501.785	11.34
502.241	10.76
502.697	11.29
503.153	11.39
503.609	11.73
504.065	11.44
504.521	11.21
504.977	11.23
505.432	10.85
505.888	11.64
506.344	10.91
506.8	11.47
507.256	11.43
507.711	11.54
508.167	10.88
508.623	11.09
509.078	11.31
509.534	12.39
509.99	11.07
510.445	10.93
510.901	11.33
511.356	11.31
511.812	11.17
512.267	10.64
512.722	11.38
513.178	11.28
513.633	11.52
514.089	11.09
514.544	11.49
514.999	11.25
515.454	11.1
515.91	10.88
516.365	11.97
516.82	11.46
517.275	10.67
517.73	11.54
518.185	10.72
518.64	11.02
519.095	11.07
519.55	11.6
520.005	11.26
520.46	11.02
520.915	10.72
521.37	11.02
521.825	11.06
522.28	11.17
522.734	11.51
523.189	11.96
523.644	11.21
524.099	11.32
524.553	10.96
525.008	11.63
525.462	10.89
525.917	11.26
526.372	11.06
526.826	12
527.281	11.42
527.735	11.17
528.19	11.61
528.644	11.32
529.098	11.28
529.553	11.58
530.007	11.84
530.461	11.23
530.916	11.93
531.37	11.6
531.824	11.39
532.278	11.31
532.732	11.93
533.186	11.32
533.641	11.86
534.095	11.56
534.549	11.74
535.003	11.59
535.457	11.34
535.911	12.37
536.365	11.09
536.818	11.43
537.272	11.63
537.726	11.8
538.18	11.74
538.634	11.08
539.087	12.09
539.541	11.42
539.995	11.2
540.449	12.15
540.902	11.44
541.356	11.69
541.809	11.73
542.263	11.54
542.716	11.34
543.17	11.95
543.623	11.51
544.077	11.01
544.53	11.32
544.984	11.63
545.437	11.49
545.89	12.31
546.344	12.15
546.797	11.3
547.25	11.85
547.703	12.14
548.157	11.79
548.61	10.69
549.063	11.2
549.516	11.16
549.969	10.88
550.422	11.67
550.875	12.02
551.328	11.2
551.781	11.44
552.234	12.16
552.687	11.48
553.14	11.64
553.592	11.44
554.045	12.55
554.498	11.9
554.951	11.64
555.404	11.61
555.856	11.08
556.309	11.87
556.762	11.8
557.214	12.28
557.667	11.51
558.119	11.07
558.572	11.35
559.024	11.88
559.477	11.32
559.929	11.95
560.382	12.15
560.834	11.38
561.286	11.9
561.739	12.11
562.191	10.87
562.643	11.57
563.095	12.07
563.548	11.61
564	12.05
564.452	12.28
564.904	11.58
565.356	11.7
565.808	11.25
566.26	11.06
566.712	11.56
567.164	11.44
567.616	11.65
568.068	11.73
568.52	11.77
568.972	11.42
569.424	11.2
569.876	11.75
570.327	11.55
570.779	11.84
571.231	11.71
571.682	11.81
572.134	11.89
572.586	11.5
573.037	11.82
573.489	11.61
573.941	11.7
574.392	11.61
574.844	12.04
575.295	11.54
575.746	11.79
576.198	11.57
576.649	11.63
577.101	11.73
577.552	11.43
578.003	11.51
578.454	11.15
578.906	11.43
579.357	11.55
579.808	11.92
580.259	11.13
580.71	11.36
581.161	11.12
581.612	11.43
582.064	11.27
582.515	12
582.965	11.63
583.416	11.66
583.867	12.03
584.318	11.09
584.769	12.09
585.22	11.32
585.671	12.02
586.122	11.27
586.572	12.03
587.023	11.39
587.474	11.37
587.924	11.61
588.375	11.83
588.826	11.94
589.276	11.66
589.727	11.71
590.177	12.27
590.628	11.69
591.078	11.93
591.529	11.87
591.979	11.62
592.429	11.83
592.88	11.8
593.33	11.41
593.78	12.05
594.231	11.49
594.681	11.99
595.131	11.43
595.581	11.63
596.031	12.18
596.481	11.4
596.932	11.34
597.382	11.86
597.832	11.1
598.282	12
598.732	11.95
599.182	12.32
599.632	11.76
600.081	11.67
600.531	11.72
600.981	12.23
601.431	11.9
601.881	12.31
602.33	11.93
602.78	12.26
603.23	11.7
603.679	11.19
604.129	11.7
604.579	11.71
605.028	11.95
605.478	11.46
605.927	11.98
606.377	12.41
606.826	12.59
607.276	11.47
607.725	12.42
608.175	11.56
608.624	12.07
609.073	11.57
609.522	11.86
609.972	12.02
610.421	12.02
610.87	11.94
611.319	11.55
611.768	11.34
612.218	11.72
612.667	12.34
613.116	12.17
613.565	12.06
614.014	11.81
614.463	11.86
614.912	11.96
615.361	11.57
615.81	11.43
616.258	12.13
616.707	11.98
617.156	11.83
617.605	11.45
618.054	11.91
618.502	11.58
618.951	12.06
619.4	12.05
619.848	12.29
620.297	12.04
620.745	11.97
621.194	11.64
621.642	11.98
622.091	11.72
622.539	11.9
622.988	11.97
623.436	11.76
623.885	11.9
624.333	12.03
624.781	11.99
625.23	12.06
625.678	12.23
626.126	11.83
626.574	12.07
627.022	11.73
627.471	12.13
627.919	11.92
628.367	11.79
628.815	11.73
629.263	12.07
629.711	12.05
630.159	11.86
630.607	12.57
631.055	12.1
631.503	11.84
631.95	11.41
632.398	11.93
632.846	11.56
633.294	12.26
633.742	11.79
634.189	12.03
634.637	12.08
635.085	12.02
635.532	12.21
635.98	11.86
636.427	11.71
636.875	11.88
637.323	11.86
637.77	11.94
638.217	11.66
638.665	11.88
639.112	12.1
639.56	12.06
640.007	12.01
640.454	11.86
640.902	12.18
641.349	12.2
641.796	12.2
642.243	12.24
642.69	11.87
643.138	12.29
643.585	12
644.032	11.93
644.479	12.08
644.926	12.03
645.373	12.06
645.82	12.02
646.267	12.49
646.714	11.97
647.161	11.79
647.607	11.61
648.054	12.38
648.501	12.11
648.948	11.92
649.395	12.3
649.841	11.85
650.288	12.19
650.735	11.91
651.181	11.75
651.628	12.25
652.075	12.12
652.521	11.92
652.968	12.36
653.414	12.04
653.861	12.26
654.307	12.07
654.753	11.85
655.2	12.66
655.646	11.8
656.092	12.42
656.539	12.3
656.985	11.69
657.431	12.16
657.877	12.56
658.324	11.88
658.77	12.04
659.216	11.77
659.662	12.21
660.108	12.02
660.554	11.89
661	12.38
661.446	12.43
661.892	12.31
662.338	12.31
662.784	12.62
663.23	12.43
663.675	12.52
664.121	12.39
664.567	12.53
665.013	12.51
665.458	12.33
665.904	12.02
666.35	11.68
666.795	12.34
667.241	12.16
667.687	12.54
668.132	12.3
668.578	11.83
669.023	12.29
669.469	12.4
669.914	12.32
670.359	12.01
670.805	12.27
671.25	12.2
671.695	12.62
672.141	12.21
672.586	12.22
673.031	12.55
673.476	12.23
673.922	12.32
674.367	12.15
674.812	12.44
675.257	12.94
675.702	12.2
676.147	12.37
676.592	12.65
677.037	12.83
677.482	12.27
677.927	12.42
678.372	12.3
678.817	12.24
679.261	12.44
679.706	12.2
680.151	12.44
680.596	11.9
681.04	12.37
681.485	12.57
681.93	12.5
682.374	12.5
682.819	12.55
683.264	12.58
683.708	12.11
684.153	12.14
684.597	12.43
685.042	12.77
685.486	12.36
685.93	12.83
686.375	12.6
686.819	12.7
687.263	12.93
687.708	12.53
688.152	12.21
688.596	12.23
689.04	12.56
689.485	12.53
689.929	12.46
690.373	12.69
690.817	12.32
691.261	12.41
691.705	12.45
692.149	12.63
692.593	12.51
693.037	13.05
693.481	12.32
693.925	12.7
694.369	12.6
694.812	12.6
695.256	12.59
695.7	12.65
696.144	12.39
696.587	12.74
697.031	12.84
697.475	12.45
697.918	12.39
698.362	12.38
698.806	12.53
699.249	12.43
699.693	12.79
700.136	12.45
700.58	12.62
701.023	12.83
701.466	12.77
701.91	12.55
702.353	12.43
702.796	12.78
703.24	12.5
703.683	12.83
704.126	12.53
704.569	12.43
705.013	13.01
705.456	12.74
705.899	12.92
706.342	12.96
706.785	12.73
707.228	12.63
707.671	12.79
708.114	12.58
708.557	12.97
709	12.74
709.443	12.74
709.886	12.62
710.328	12.53
710.771	13
711.214	12.76
711.657	12.62
712.099	12.68
712.542	12.74
712.985	12.8
713.427	12.91
713.87	12.9
714.313	12.75
714.755	12.95
715.198	12.49
715.64	12.59
716.083	12.87
716.525	12.74
716.967	12.56
717.41	12.61
717.852	12.64
718.295	12.93
718.737	12.99
719.179	12.7
719.621	12.76
720.063	12.82
720.506	12.97
720.948	12.87
721.39	12.91
721.832	13.01
722.274	13.06
722.716	12.75
723.158	12.76
723.6	12.85
724.042	13.36
724.484	12.97
724.926	12.95
725.368	12.66
725.81	12.9
726.251	12.69
726.693	13.04
727.135	13.16
727.577	13.12
728.018	13.03
728.46	13.15
728.902	13.21
729.343	12.73
729.785	13.25
730.226	13.07
730.668	13.2
731.109	13.29
731.551	13.01
731.992	12.66
732.434	12.85
732.875	13.09
733.316	13.17
733.758	13.4
734.199	12.88
734.64	13.19
735.081	12.8
735.523	12.74
735.964	13.13
736.405	12.83
736.846	13.28
737.287	13.2
737.728	12.92
738.169	13.26
738.61	12.9
739.051	12.95
739.492	13.14
739.933	12.89
740.374	12.84
740.815	13.02
741.256	13.71
741.696	12.86
742.137	13.14
742.578	13.51
743.019	13.18
743.459	12.87
743.9	13.51
744.341	13.08
744.781	13.53
745.222	13.64
745.662	13.35
746.103	13
746.543	13.45
746.984	13.67
747.424	13.49
747.865	13.18
748.305	13.12
748.745	13.11
749.186	13.39
749.626	13.31
750.066	13.2
750.506	13.13
750.947	13.31
751.387	13.23
751.827	13.26
752.267	13.1
752.707	13.33
753.147	12.96
753.587	13.36
754.027	13.6
754.467	13.37
754.907	13.38
755.347	13.32
755.787	13.43
756.227	13.16
756.667	13.35
757.107	13.26
757.546	13.44
757.986	13.27
758.426	13.36
758.865	12.95
759.305	13.62
759.745	13.38
760.184	13.33
760.624	13.76
761.063	13.43
761.503	13.55
761.943	13.53
762.382	13.66
762.821	13.33
763.261	13.39
763.7	13.51
764.14	13.42
764.579	13.47
765.018	13.52
765.457	13.44
765.897	13.25
766.336	13.33
766.775	13.35
767.214	13.27
767.653	13.31
768.092	13.23
768.531	13.57
768.97	13.53
769.409	13.11
769.848	13.57
770.287	13.59
770.726	13.78
771.165	13.39
771.604	13.38
772.043	13.47
772.482	13.82
772.92	13.43
773.359	13.45
773.798	13.57
774.237	13.43
774.675	13.62
775.114	13.86
775.553	13.67
775.991	13.75
776.43	13.66
776.868	13.38
777.307	13.69
777.745	13.63
778.184	13.46
778.622	13.62
779.06	14.14
779.499	13.6
779.937	13.54
780.375	13.68
780.814	13.98
781.252	13.64
781.69	13.58
782.128	13.77
782.566	13.88
783.004	13.57
783.443	13.6
783.881	13.6
784.319	13.72
784.757	13.63
785.195	13.68
785.633	13.53
786.071	13.54
786.508	13.95
786.946	13.94
787.384	13.63
787.822	14.16
788.26	14.16
788.697	13.57
789.135	13.91
789.573	13.64
790.011	13.99
790.448	13.71
790.886	13.82
791.323	13.84
791.761	14.23
792.198	13.9
792.636	13.88
793.073	13.69
793.511	14.01
793.948	13.97
794.386	14.09
794.823	14.4
795.26	14.07
795.698	13.95
796.135	14.19
796.572	13.69
797.009	13.82
797.446	13.53
797.884	14.22
798.321	13.92
798.758	13.85
799.195	13.67
799.632	14.02
800.069	14.08
800.506	13.98
800.943	14.11
801.38	13.75
801.817	13.84
802.254	14.22
802.69	13.99
803.127	13.7
803.564	13.6
804.001	13.8
804.438	13.94
804.874	14.14
805.311	14.14
805.748	14
806.184	13.94
806.621	13.95
807.057	14.13
807.494	14.12
807.93	14.05
808.367	14.1
808.803	14.33
809.24	14.12
809.676	14.23
810.112	14.15
810.549	14.07
810.985	14.12
811.421	14.12
811.857	13.9
812.294	14.17
812.73	14.12
813.166	14.28
813.602	13.76
814.038	14.19
814.474	13.86
814.91	14.18
815.346	14.23
815.782	14.43
816.218	14.34
816.654	14.08
817.09	14.02
817.526	14.06
817.962	14.56
818.398	14.2
818.833	14.59
819.269	14.3
819.705	14.28
820.141	14.49
820.576	14.23
821.012	14.27
821.447	14.38
821.883	14.29
822.319	14.32
822.754	14.41
823.19	14.1
823.625	14.17
824.061	14.29
824.496	14.26
824.931	14.18
825.367	14.28
825.802	14.46
826.237	14.4
826.673	14.4
827.108	14.36
827.543	14.55
827.978	14.25
828.413	14.62
828.849	14.51
829.284	14.3
829.719	14.37
830.154	14.5
830.589	14.18
831.024	14.5
831.459	14.16
831.894	14.48
832.329	14.4
832.763	14.38
833.198	14.58
833.633	14.37
834.068	14.3
834.503	14.54
834.937	14.46
835.372	14.24
835.807	14.74
836.241	14.56
836.676	14.52
837.111	14.35
837.545	14.67
837.98	14.41
838.414	14.7
838.849	14.38
839.283	14.76
839.717	14.66
840.152	14.59
840.586	14.72
841.021	14.52
841.455	14.88
841.889	14.47
842.323	14.52
842.758	14.46
843.192	14.87
843.626	14.93
844.06	14.74
844.494	14.6
844.928	14.42
845.362	14.74
845.796	14.68
846.23	14.76
846.664	14.59
847.098	14.65
847.532	14.58
847.966	14.69
848.4	14.6
848.834	14.57
849.267	14.81
849.701	14.81
850.135	14.57
850.569	14.62
851.002	14.91
851.436	14.61
851.87	14.55
852.303	14.73
852.737	14.88
853.17	14.9
853.604	14.79
854.037	14.72
854.471	14.72
854.904	14.8
855.337	14.89
855.771	14.88
856.204	14.73
856.637	14.97
857.071	15.05
857.504	14.95
857.937	15.17
858.37	14.6
858.804	14.93
859.237	14.95
859.67	15.2
860.103	14.99
860.536	14.76
860.969	14.87
861.402	14.78
861.835	15.09
862.268	14.94
862.701	15.09
863.134	15.23
863.566	15.02
863.999	14.74
864.432	14.91
864.865	14.88
865.298	15.07
865.73	15.15
866.163	15.19
866.596	14.82
867.028	15.23
867.461	15.12
867.893	15.16
868.326	15.04
868.758	15.18
869.191	15.06
869.623	15.03
870.056	15.44
870.488	15.24
870.92	15.13
871.353	15.53
871.785	15.06
872.217	15.42
872.65	15.18
873.082	15.02
873.514	15.08
873.946	15.25
874.378	15.37
874.81	15.24
875.243	15.28
875.675	15.41
876.107	15.54
876.539	15.2
876.971	15.14
877.403	15.05
877.834	15.38
878.266	15.13
878.698	15.23
879.13	15.46
879.562	15.43
879.994	15.12
880.425	15.22
880.857	15.2
881.289	15.14
881.72	15.63
882.152	15.3
882.584	15.31
883.015	15.31
883.447	15.49
883.878	15.51
884.31	15.44
884.741	15.52
885.173	15.41
885.604	15.51
886.035	15.55
886.467	15.43
886.898	15.5
887.329	15.54
887.76	15.55
888.192	15.58
888.623	15.56
889.054	15.45
889.485	15.28
889.916	15.55
890.347	15.41
890.778	15.79
891.209	15.25
891.64	15.64
892.071	15.81
892.502	15.62
892.933	15.7
893.364	15.44
893.795	15.71
894.226	15.41
894.657	15.63
895.087	15.67
895.518	15.56
895.949	15.75
896.38	15.75
896.81	15.65
897.241	15.65
897.671	15.72
898.102	15.67
898.533	15.8
898.963	15.6
899.394	15.63
899.824	15.68
900.254	15.72
900.685	15.44
901.115	15.85
901.546	15.69
901.976	15.54
902.406	15.75
902.836	15.79
903.267	15.89
903.697	15.73
904.127	15.55
904.557	15.69
904.987	15.69
905.417	15.73
905.847	15.68
906.277	15.89
906.707	15.89
907.137	15.73
907.567	15.89
907.997	15.72
908.427	15.81
908.857	15.98
909.287	15.95
909.717	15.88
910.146	16.29
910.576	16.02
911.006	15.95
911.436	15.98
911.865	15.92
912.295	15.8
912.724	15.96
913.154	15.91
913.584	15.86
914.013	16.11
914.443	15.97
914.872	15.99
915.302	16.01
915.731	16.17
916.16	16.04
916.59	16.09
917.019	16.11
917.448	16
917.878	16.23
918.307	16.07
918.736	16.13
919.165	16.08
919.594	16.06
920.023	16.09
920.452	16.16
920.882	16.28
921.311	16.03
921.74	16.22
922.169	16.14
922.597	16.23
923.026	16.08
923.455	16.19
923.884	16.42
924.313	16.33
924.742	16.01
925.171	16.54
925.599	16.31
926.028	16.37
926.457	16.16
926.885	16.21
927.314	16.28
927.743	16.28
928.171	16.03
928.6	16.24
929.028	16.37
929.457	16.28
929.885	16.5
930.314	16.19
930.742	16.51
931.17	16.15
931.599	16.29
932.027	16.25
932.455	16.5
932.884	16.48
933.312	16.31
933.74	16.41
934.168	16.41
934.596	16.49
935.025	16.31
935.453	16.39
935.881	16.16
936.309	16.13
936.737	16.42
937.165	16.19
937.593	16.51
938.021	16.83
938.449	16.52
938.876	16.6
939.304	16.39
939.732	16.49
940.16	16.72
940.588	16.82
941.015	16.44
941.443	16.32
941.871	16.73
942.298	16.96
942.726	16.62
943.154	16.38
943.581	16.89
944.009	16.77
944.436	16.81
944.864	16.39
945.291	16.87
945.718	16.48
946.146	16.87
946.573	16.57
947.001	16.82
947.428	16.61
947.855	16.86
948.282	16.71
948.71	16.74
949.137	16.76
949.564	16.79
949.991	16.81
950.418	16.7
950.845	16.49
951.272	16.98
951.699	16.74
952.126	16.91
952.553	16.93
952.98	16.66
953.407	16.71
953.834	16.82
954.261	16.86
954.688	16.89
955.114	16.94
955.541	17.06
955.968	17
956.395	16.98
956.821	16.84
957.248	16.68
957.674	16.75
958.101	16.91
958.528	16.87
958.954	16.89
959.381	17.03
959.807	17.15
960.234	17.01
960.66	16.98
961.086	17.12
961.513	17.03
961.939	17.14
962.365	16.94
962.792	17.06
963.218	17.01
963.644	17.03
964.07	16.93
964.496	17.11
964.923	17.1
965.349	17.21
965.775	17.11
966.201	17.22
966.627	17.27
967.053	17.12
967.479	17.18
967.905	17.05
968.331	17.23
968.756	17.21
969.182	17.37
969.608	17.17
970.034	17.25
970.46	17.22
970.885	17.18
971.311	17.4
971.737	17.18
972.162	17.28
972.588	17.2
973.014	17.21
973.439	17.29
973.865	17.2
974.29	17.26
974.716	17.43
975.141	17.49
975.567	17.35
975.992	17.14
976.417	17.51
976.843	17.51
977.268	17.59
977.693	17.63
978.119	17.81
978.544	17.71
978.969	17.72
979.394	17.87
979.819	17.92
980.244	18.26
980.669	18.06
981.095	18.12
981.52	17.81
981.945	17.88
982.369	18.21
982.794	17.92
983.219	17.99
983.644	18.12
984.069	17.87
984.494	17.76
984.919	17.62
985.343	17.76
985.768	17.87
986.193	17.74
986.618	17.72
987.042	17.81
987.467	17.71
987.891	17.86
988.316	17.82
988.741	17.94
989.165	18.09
989.59	17.99
990.014	18
990.438	18.15
990.863	18.22
991.287	18.23
991.712	17.94
992.136	18.07
992.56	18.11
992.984	18.02
993.409	18.3
993.833	17.82
994.257	17.9
994.681	18.28
995.105	18.22
995.529	18.06
995.953	18.11
996.377	18.19
996.801	18.1
997.225	18.06
997.649	18.19
998.073	18.06
998.497	18.21
998.921	18.28
999.345	18.07
999.769	18.13
1000.192	18.17
1000.616	18.22
1001.04	18.23
1001.464	18.23
1001.887	18.21
1002.311	18.15
1002.734	18.04
1003.158	18.04
1003.582	18.13
1004.005	18
1004.429	17.78
1004.852	17.93
1005.275	17.92
1005.699	18.07
1006.122	18.16
1006.546	18.04
1006.969	18.21
1007.392	17.93
1007.815	18.15
1008.239	17.97
1008.662	18.06
1009.085	18.15
1009.508	18.13
1009.931	18.08
1010.354	18.1
1010.778	18.17
1011.201	18.26
1011.624	18.4
1012.047	18.33
1012.469	18.39
1012.892	18.2
1013.315	18.31
1013.738	18.21
1014.161	18.37
1014.584	18.25
1015.007	18.36
1015.429	18.27
1015.852	18.23
1016.275	18.39
1016.697	18.32
1017.12	18.31
1017.543	18.49
1017.965	18.25
1018.388	18.46
1018.81	18.55
1019.233	18.34
1019.655	18.48
1020.078	18.35
1020.5	18.54
1020.922	18.48
1021.345	18.6
1021.767	18.47
1022.189	18.36
1022.612	18.77
1023.034	18.5
1023.456	18.78
1023.878	18.54
1024.301	18.76
1024.723	18.72
1025.145	18.58
1025.567	18.37
1025.989	18.63
1026.411	18.81
1026.833	18.73
1027.255	18.99
1027.677	18.93
1028.099	18.67
1028.52	18.83
1028.942	18.83
1029.364	18.91
1029.786	18.86
1030.208	18.92
1030.629	18.93
1031.051	18.76
1031.473	18.87
1031.894	18.84
1032.316	18.98
1032.738	18.73
1033.159	18.69
1033.581	18.84
1034.002	19.09
1034.424	18.94
1034.845	19.37
1035.267	19.08
1035.688	19.05
1036.109	19.25
1036.531	19.29
1036.952	18.59
1037.373	19.04
1037.794	19.14
1038.216	19.21
1038.637	18.94
1039.058	18.97
1039.479	19.34
1039.9	19.12
1040.321	19.22
1040.742	19.41
1041.163	19.17
1041.584	18.94
1042.005	19
1042.426	19.72
1042.847	19.32
1043.268	19.33
1043.689	19.19
1044.11	19.27
1044.53	19.59
1044.951	19.36
1045.372	19.39
1045.793	19.39
1046.213	19.34
1046.634	19.41
1047.055	19.61
1047.475	19.71
1047.896	19.71
1048.316	19.62
1048.737	19.51
1049.157	19.72
1049.578	19.63
1049.998	19.38
1050.419	19.72
1050.839	19.24
1051.259	19.61
1051.68	19.77
1052.1	19.44
1052.52	19.71
1052.94	19.24
1053.361	19.86
1053.781	19.66
1054.201	19.88
1054.621	19.94
1055.041	19.71
1055.461	20
1055.881	19.82
1056.301	19.73
1056.721	20.08
1057.141	19.91
1057.561	19.56
1057.981	20.3
1058.401	19.81
1058.82	19.8
1059.24	20.09
1059.66	20.41
1060.08	20.32
1060.499	20.25
1060.919	19.69
1061.339	20.01
1061.758	20.36
1062.178	20.18
1062.598	19.98
1063.017	19.92
1063.437	20.2
1063.856	19.76
1064.276	19.81
1064.695	20.41
1065.114	19.85
1065.534	20.58
1065.953	19.84
1066.372	20.15
1066.792	20.27
1067.211	20.21
1067.63	19.96
1068.049	20.51
1068.469	20.5
1068.888	20.32
1069.307	20.33
1069.726	20.4
1070.145	20.4
1070.564	20.17
1070.983	20.41
1071.402	20.17
1071.821	20.42
1072.24	20.22
1072.659	20.29
1073.078	20.42
1073.496	20.62
1073.915	20.9
1074.334	20.7
1074.753	20.93
1075.171	20.41
1075.59	20.4
1076.009	20.37
1076.427	21.01
1076.846	19.87
1077.265	20.52
1077.683	20.39
1078.102	20.95
1078.52	20.41
1078.939	20.87
1079.357	20.93
1079.776	20.79
1080.194	20.86
1080.612	20.72
1081.031	21.2
1081.449	20.99
1081.867	21.35
1082.285	21.04
1082.704	20.2
1083.122	20.49
1083.54	20.76
1083.958	20.88
1084.376	20.58
1084.794	21.73
1085.212	20.56
1085.63	21.57
1086.048	21.8
1086.466	21.2
1086.884	20.95
1087.302	21.11
1087.72	21.78
1088.138	20.73
1088.555	21.42
1088.973	21.31
1089.391	21.19
1089.809	21.62
1090.226	20.91
1090.644	21.85
1091.062	21.43
1091.479	21.37
1091.897	21.63
1092.314	21.67
1092.732	20.65
1093.15	21.06
1093.567	21.78
1093.984	21.51
1094.402	21.17
1094.819	22.09
1095.237	21.78
1095.654	21.43
1096.071	22.48
1096.488	21.32
1096.906	22.49
1097.323	21.33
1097.74	21.13
1098.157	21.4
1098.574	22.24
1098.991	20.97
1099.409	21.96
1099.826	21.89
1100.243	21.79
1100.66	22.22
1101.077	21.25
1101.494	22.78
1101.91	22.16
1102.327	21.39
1102.744	22.36
1103.161	21.66
1103.578	21.61
1103.994	22.05
1104.411	21.81
1104.828	21.96
1105.245	21.83
1105.661	21.87
1106.078	22.06
1106.494	23.12
1106.911	22.82
1107.328	22.57
1107.744	22.8
1108.161	23.53
1108.577	23.28
1108.993	23.02
1109.41	23.31
1109.826	22.06
1110.242	23.05
1110.659	23.15
1111.075	22.32
1111.491	23.7
1111.908	21.86
1112.324	24.35
1112.74	28.33
1113.156	22.46
1113.572	23.76
1113.988	22.11
1114.404	23.6
1114.82	22.21
1115.236	22.42
1115.652	21.66
1116.068	25.13
1116.484	24.91
1116.9	23.45
1117.316	24.9
1117.732	39.09
1118.147	29
1118.563	-3.57
1118.979	-250
