Data from JCR0011_Black1_Reflection_00003.txt Node
Date: Thu Jul 23 13:31:47 ACST 2020
User: Stacey Dix
Spectrometer: MAYP113282
Scans to average: 1
Trigger mode: 0
Integration Time (sec): 1.000000E-1
Electric dark correction enabled: true
Boxcar width: 0
XAxis mode: Wavelengths
Number of Pixels in Spectrum: 2068
>>>>>Begin Spectral Data<<<<<
198.791	-596.87
199.266	-179.41
199.74	-34.38
200.215	-81.25
200.69	56.87
201.164	54.14
201.639	45.15
202.114	46.25
202.588	28.78
203.063	38.96
203.537	34.16
204.012	36.55
204.486	44.77
204.961	35.89
205.435	29.56
205.909	32.35
206.384	43.3
206.858	40.34
207.332	42.2
207.807	42.57
208.281	35.94
208.755	30.42
209.229	25.92
209.703	25.22
210.177	33.14
210.651	29.47
211.126	35
211.6	40.43
212.074	27.67
212.548	29.84
213.021	26.86
213.495	27.25
213.969	28.2
214.443	36.01
214.917	24.6
215.391	29.35
215.864	31.01
216.338	32.07
216.812	23.43
217.286	26.94
217.759	29.87
218.233	25.94
218.706	18.68
219.18	27.93
219.654	22.36
220.127	24.77
220.6	19.35
221.074	20.6
221.547	20.62
222.021	26.79
222.494	19.05
222.967	19.26
223.441	20.6
223.914	19.8
224.387	19.48
224.86	15.94
225.334	21.03
225.807	14.84
226.28	16.62
226.753	17.85
227.226	15.38
227.699	15.4
228.172	15.25
228.645	12.43
229.118	13.92
229.591	13.26
230.064	11.86
230.537	11.42
231.01	13.61
231.482	13.42
231.955	13.75
232.428	11.57
232.901	12.87
233.373	12.22
233.846	11.03
234.319	11.27
234.791	10.92
235.264	10.33
235.736	10.42
236.209	10.88
236.681	10.64
237.154	9.58
237.626	9.62
238.099	10.94
238.571	10.5
239.044	10.73
239.516	8.81
239.988	9.27
240.46	8.94
240.933	8.7
241.405	9.75
241.877	8.18
242.349	9.88
242.821	8.84
243.293	8.9
243.765	8.35
244.237	9.19
244.71	8.83
245.181	8.85
245.653	9.27
246.125	8.9
246.597	9.37
247.069	8.83
247.541	8.86
248.013	9.39
248.485	8.38
248.956	8.84
249.428	8.28
249.9	8.8
250.371	8.67
250.843	8.71
251.315	7.89
251.786	8.04
252.258	7.91
252.729	8.24
253.201	7.74
253.672	7.88
254.144	7.17
254.615	7.44
255.086	7.33
255.558	7.43
256.029	7.77
256.5	7.43
256.972	7.63
257.443	7.01
257.914	7.41
258.385	7.65
258.856	7.37
259.327	7.32
259.799	6.96
260.27	6.96
260.741	7.6
261.212	6.78
261.683	7.32
262.154	6.98
262.624	7.12
263.095	7.58
263.566	6.98
264.037	6.9
264.508	7.07
264.979	7.38
265.449	7.13
265.92	7.19
266.391	7.3
266.861	7.23
267.332	7.14
267.803	7.17
268.273	6.86
268.744	6.75
269.214	7.42
269.685	7.33
270.155	6.84
270.626	7.42
271.096	7.52
271.566	7.46
272.037	6.88
272.507	7.69
272.977	6.82
273.448	7.4
273.918	7.55
274.388	7.73
274.858	7.2
275.328	7.11
275.798	8.02
276.268	7.2
276.738	7.13
277.208	7.06
277.678	7.87
278.148	8.26
278.618	7.74
279.088	7.51
279.558	6.57
280.028	7.14
280.498	7.17
280.968	7.43
281.437	7.32
281.907	7.42
282.377	6.97
282.847	7.36
283.316	7.35
283.786	6.68
284.255	6.94
284.725	7.08
285.194	6.98
285.664	6.45
286.133	7.43
286.603	6.47
287.072	6.88
287.542	7
288.011	7.15
288.48	6.68
288.95	6.84
289.419	6.5
289.888	6.92
290.357	6.9
290.827	6.76
291.296	6.66
291.765	6.36
292.234	6.76
292.703	6.14
293.172	6.41
293.641	6.5
294.11	6.44
294.579	6.5
295.048	6.57
295.517	6.85
295.986	6.94
296.455	6.86
296.923	7.02
297.392	6.91
297.861	6.64
298.33	6.02
298.798	7.25
299.267	6.58
299.736	6.8
300.204	7.06
300.673	6.98
301.141	7.14
301.61	6.43
302.079	7.07
302.547	6.15
303.015	6.35
303.484	6.48
303.952	6.62
304.421	6.73
304.889	7.01
305.357	6.64
305.825	7.44
306.294	6.67
306.762	6.51
307.23	7.38
307.698	6.63
308.166	7.24
308.634	6.27
309.103	6.95
309.571	6.95
310.039	7.06
310.507	6.32
310.975	6.95
311.442	6.68
311.91	6.33
312.378	6.95
312.846	6.27
313.314	7.2
313.782	6.51
314.249	6.91
314.717	7.02
315.185	6.5
315.652	6.76
316.12	6.62
316.588	6.73
317.055	6.8
317.523	6.73
317.99	6.56
318.458	6.71
318.925	6.49
319.393	6.39
319.86	6.23
320.328	6.8
320.795	7.24
321.262	7.02
321.73	7.51
322.197	6.82
322.664	6.14
323.131	6.76
323.598	7.11
324.066	6.91
324.533	6.98
325	7.11
325.467	7
325.934	6.63
326.401	7.3
326.868	7.05
327.335	7.11
327.802	7.59
328.269	7.36
328.735	7.22
329.202	7.84
329.669	7.43
330.136	7.74
330.603	7.42
331.069	7.78
331.536	7.93
332.003	7.14
332.469	7.74
332.936	7.54
333.402	7.55
333.869	7.98
334.336	7.7
334.802	7.71
335.268	7.97
335.735	7.99
336.201	7.83
336.668	8.27
337.134	8.23
337.6	7.89
338.067	7.68
338.533	7.62
338.999	7.97
339.465	8.34
339.931	7.73
340.398	7.31
340.864	8.24
341.33	7.51
341.796	7.38
342.262	7.97
342.728	8.36
343.194	8.39
343.66	7.57
344.126	8.13
344.592	7.7
345.057	7.73
345.523	7.67
345.989	7.71
346.455	7.31
346.921	8.24
347.386	7.34
347.852	7.96
348.318	7.7
348.783	7.87
349.249	7.32
349.714	7.97
350.18	8.01
350.645	8.32
351.111	7.66
351.576	7.75
352.042	8.49
352.507	8.27
352.973	8.19
353.438	8.19
353.903	8.77
354.369	7.36
354.834	7.78
355.299	8.36
355.764	7.72
356.229	8.05
356.695	8.02
357.16	8.11
357.625	7.55
358.09	8.83
358.555	8.76
359.02	8.43
359.485	8.03
359.95	8.16
360.415	8.33
360.879	8.43
361.344	8.15
361.809	8.3
362.274	7.98
362.739	8.42
363.203	8.4
363.668	7.91
364.133	7.77
364.597	8.68
365.062	8.18
365.527	8.2
365.991	8.33
366.456	8.35
366.92	7.99
367.385	8.7
367.849	8.01
368.314	8.59
368.778	8.38
369.242	8.18
369.707	8.51
370.171	8.42
370.635	8.65
371.1	8.27
371.564	8.74
372.028	8.34
372.492	8.62
372.956	8.37
373.42	8.95
373.884	8.27
374.348	8.48
374.812	9.08
375.276	8.52
375.74	8.91
376.204	8.72
376.668	8.89
377.132	9.06
377.596	8.05
378.06	7.68
378.524	8.5
378.987	8.98
379.451	8.5
379.915	9
380.378	8.34
380.842	8.58
381.306	8.77
381.769	8.28
382.233	9.05
382.696	8.25
383.16	9.05
383.623	8.48
384.087	8.97
384.55	8.57
385.014	8.57
385.477	8.51
385.94	9.55
386.404	8.78
386.867	8.99
387.33	8.66
387.793	8.8
388.256	8.72
388.72	8.66
389.183	8.55
389.646	9.16
390.109	8.95
390.572	9.03
391.035	8.25
391.498	8.89
391.961	9.12
392.424	8.85
392.887	8.87
393.35	9.29
393.812	9.09
394.275	8.87
394.738	8.84
395.201	8.8
395.664	9.2
396.126	8.74
396.589	9.12
397.052	8.82
397.514	8.92
397.977	8.75
398.439	8.6
398.902	9.11
399.364	8.22
399.827	8.82
400.289	9.2
400.752	8.73
401.214	8.97
401.676	8.86
402.139	8.99
402.601	9.12
403.063	9.11
403.525	8.17
403.988	9.05
404.45	9.4
404.912	8.69
405.374	8.86
405.836	9.29
406.298	9.36
406.76	9.43
407.222	9.38
407.684	9.78
408.146	8.78
408.608	8.92
409.07	9.15
409.532	9.62
409.994	9.27
410.456	9.97
410.917	9.38
411.379	9.21
411.841	9.21
412.303	8.93
412.764	9.15
413.226	9.21
413.687	9.58
414.149	9
414.611	8.64
415.072	9.2
415.534	9.21
415.995	8.91
416.457	9.28
416.918	9.48
417.379	9.42
417.841	8.74
418.302	9.2
418.763	9.1
419.225	9.51
419.686	9.28
420.147	9.41
420.608	9.68
421.069	9.56
421.53	9.14
421.991	8.97
422.453	8.91
422.914	9.04
423.375	9.36
423.836	9.15
424.297	8.89
424.757	9.11
425.218	9.45
425.679	9.72
426.14	9.02
426.601	9.24
427.062	9.62
427.522	9.58
427.983	10.16
428.444	9.65
428.904	9.98
429.365	9.87
429.826	9.96
430.286	9.52
430.747	9.4
431.207	10.2
431.668	10.05
432.128	11.03
432.589	9.78
433.049	11.08
433.509	11.11
433.97	9.94
434.43	9.95
434.89	9.74
435.351	10.02
435.811	10.18
436.271	9.71
436.731	9.67
437.191	11.01
437.651	10.53
438.112	10.51
438.572	10.69
439.032	10.71
439.492	9.9
439.952	10.3
440.412	10.24
440.871	10.92
441.331	10.26
441.791	11.34
442.251	10.34
442.711	9.37
443.171	10.75
443.63	10.3
444.09	10.99
444.55	10.8
445.009	10.69
445.469	10.56
445.929	10.93
446.388	11
446.848	11.24
447.307	10.89
447.767	10.74
448.226	10.49
448.686	10.68
449.145	9.88
449.604	10.78
450.064	10.38
450.523	10.63
450.982	10.69
451.442	9.79
451.901	11.55
452.36	10.3
452.819	10.43
453.278	10.56
453.737	10.03
454.197	10.4
454.656	10.24
455.115	10.97
455.574	10.31
456.033	10.72
456.492	10.65
456.95	10.15
457.409	10.88
457.868	10.2
458.327	9.89
458.786	11.2
459.245	11.09
459.703	10.32
460.162	11.1
460.621	10.65
461.079	9.51
461.538	10.79
461.997	11.37
462.455	10.46
462.914	10.35
463.372	11.17
463.831	10.77
464.289	10.58
464.748	11.61
465.206	10.73
465.664	10.51
466.123	10.45
466.581	11.75
467.039	11.27
467.497	11.34
467.956	10.85
468.414	11.11
468.872	11.78
469.33	10.56
469.788	10.77
470.246	11.23
470.704	10.71
471.162	10.83
471.62	11.24
472.078	9.89
472.536	11.72
472.994	11.31
473.452	10.48
473.91	11.92
474.368	10.36
474.826	11.22
475.283	11.38
475.741	10.95
476.199	11.58
476.656	11.18
477.114	10.83
477.572	11.61
478.029	11.42
478.487	11.11
478.944	10.54
479.402	11.74
479.859	10.71
480.317	10.94
480.774	10.93
481.232	10.83
481.689	11.14
482.146	10.93
482.604	11.37
483.061	11.04
483.518	10.49
483.975	11.08
484.433	11.12
484.89	10.66
485.347	11.96
485.804	10.92
486.261	10.95
486.718	11.08
487.175	11.32
487.632	11.02
488.089	13.02
488.546	11.14
489.003	10.97
489.46	11.63
489.917	11.68
490.373	11.24
490.83	11.35
491.287	11.37
491.744	11.96
492.2	11.49
492.657	11
493.114	10.3
493.57	11.15
494.027	12.02
494.484	11.93
494.94	11.52
495.397	11.36
495.853	10.83
496.31	11.38
496.766	11.31
497.222	11.67
497.679	11.89
498.135	11.34
498.591	11.64
499.048	11.81
499.504	11.35
499.96	10.97
500.416	11.35
500.872	11.81
501.329	11.65
501.785	11.75
502.241	11.25
502.697	11.84
503.153	11.59
503.609	13.02
504.065	11.17
504.521	10.86
504.977	11.77
505.432	12.1
505.888	11.4
506.344	11.27
506.8	12.1
507.256	11.56
507.711	11.9
508.167	10.96
508.623	11.24
509.078	11.19
509.534	11.83
509.99	11.09
510.445	11.56
510.901	11.05
511.356	10.99
511.812	11.33
512.267	11.25
512.722	11.61
513.178	11.85
513.633	10.85
514.089	11.29
514.544	11.54
514.999	11.07
515.454	10.99
515.91	11.14
516.365	11.38
516.82	11.54
517.275	11.34
517.73	11.61
518.185	10.34
518.64	11.14
519.095	11.13
519.55	11.6
520.005	10.8
520.46	11.63
520.915	11.68
521.37	11.31
521.825	11.54
522.28	11.13
522.734	11.36
523.189	11.89
523.644	10.9
524.099	11.32
524.553	11.65
525.008	11.35
525.462	11.42
525.917	11.58
526.372	11.08
526.826	11.63
527.281	11.26
527.735	11.76
528.19	11
528.644	11.38
529.098	11.4
529.553	11.11
530.007	10.89
530.461	11.44
530.916	12.29
531.37	11
531.824	11.27
532.278	11.41
532.732	11.97
533.186	11.6
533.641	11.86
534.095	11.35
534.549	11.83
535.003	10.69
535.457	11.77
535.911	11.87
536.365	11.98
536.818	11.41
537.272	11.61
537.726	11.7
538.18	12
538.634	11.62
539.087	11.57
539.541	11.18
539.995	11.41
540.449	11.43
540.902	11.61
541.356	11.88
541.809	12.04
542.263	10.97
542.716	11.34
543.17	11.57
543.623	12.28
544.077	11.3
544.53	10.98
544.984	11.89
545.437	11.93
545.89	11.91
546.344	11.75
546.797	11.21
547.25	11.89
547.703	11.36
548.157	11.68
548.61	10.81
549.063	11.67
549.516	12.14
549.969	11.32
550.422	11.69
550.875	11.69
551.328	11.63
551.781	11.23
552.234	11.94
552.687	11.75
553.14	11.98
553.592	11.36
554.045	12.35
554.498	11.58
554.951	11.88
555.404	11.47
555.856	11.68
556.309	11.73
556.762	11.69
557.214	11.79
557.667	12.08
558.119	11.44
558.572	11.44
559.024	11.8
559.477	11.06
559.929	11.9
560.382	11.56
560.834	10.93
561.286	11.12
561.739	11.09
562.191	11.45
562.643	11.39
563.095	12.55
563.548	11.07
564	11.54
564.452	12.33
564.904	11.36
565.356	12
565.808	11.28
566.26	12.38
566.712	11.6
567.164	11.85
567.616	12.41
568.068	11.45
568.52	11.25
568.972	11.7
569.424	10.91
569.876	11.21
570.327	11.52
570.779	11.65
571.231	11.5
571.682	11.71
572.134	11.78
572.586	11.66
573.037	11.36
573.489	11.44
573.941	11.56
574.392	11.53
574.844	12.33
575.295	11.49
575.746	11.44
576.198	11.84
576.649	11.52
577.101	12.12
577.552	11.08
578.003	11.87
578.454	11.2
578.906	11.13
579.357	11.59
579.808	11.66
580.259	11.37
580.71	11.8
581.161	11.39
581.612	11.8
582.064	11.21
582.515	11.38
582.965	11.84
583.416	11.89
583.867	11.6
584.318	11.5
584.769	11.82
585.22	11.1
585.671	11.99
586.122	11.63
586.572	12.14
587.023	11.84
587.474	12.2
587.924	11.59
588.375	11.66
588.826	12.14
589.276	11.92
589.727	11.87
590.177	11.71
590.628	11.44
591.078	11.4
591.529	11.74
591.979	11.94
592.429	11.9
592.88	12.23
593.33	12.18
593.78	12.06
594.231	11.69
594.681	11.75
595.131	11.87
595.581	11.63
596.031	11.34
596.481	11.27
596.932	11.72
597.382	11.39
597.832	11.8
598.282	11.47
598.732	11.49
599.182	11.78
599.632	11.8
600.081	11.43
600.531	11.52
600.981	11.71
601.431	12.46
601.881	11.97
602.33	12.07
602.78	11.87
603.23	11.93
603.679	11.69
604.129	11.69
604.579	11.74
605.028	11.88
605.478	11.44
605.927	11.88
606.377	12.15
606.826	12.38
607.276	11.71
607.725	12.05
608.175	11.68
608.624	12.21
609.073	11.88
609.522	11.67
609.972	12.05
610.421	11.73
610.87	12.05
611.319	11.52
611.768	11.34
612.218	11.88
612.667	11.84
613.116	12.39
613.565	11.81
614.014	11.72
614.463	11.72
614.912	12.1
615.361	11.9
615.81	11.46
616.258	11.7
616.707	12.1
617.156	12.3
617.605	12.25
618.054	11.76
618.502	11.81
618.951	12.04
619.4	11.82
619.848	12.02
620.297	11.89
620.745	11.69
621.194	11.59
621.642	12.1
622.091	12.05
622.539	11.88
622.988	12.02
623.436	11.99
623.885	12.09
624.333	12.04
624.781	12.21
625.23	11.77
625.678	12.35
626.126	11.78
626.574	11.57
627.022	11.88
627.471	11.95
627.919	11.95
628.367	12.07
628.815	11.9
629.263	11.85
629.711	11.79
630.159	11.97
630.607	11.88
631.055	12.13
631.503	11.75
631.95	11.66
632.398	12.27
632.846	11.85
633.294	12.16
633.742	11.95
634.189	11.95
634.637	12.27
635.085	12.05
635.532	12.12
635.98	12.05
636.427	11.78
636.875	12.13
637.323	12.02
637.77	12.15
638.217	11.78
638.665	11.97
639.112	11.63
639.56	12.27
640.007	11.75
640.454	11.57
640.902	11.77
641.349	12.3
641.796	11.95
642.243	11.82
642.69	11.75
643.138	12.35
643.585	11.94
644.032	11.57
644.479	11.73
644.926	11.46
645.373	12.2
645.82	12.09
646.267	12.4
646.714	12.17
647.161	12.06
647.607	12.08
648.054	12.04
648.501	12.19
648.948	12.2
649.395	12.07
649.841	12.27
650.288	12
650.735	12.22
651.181	12.4
651.628	11.53
652.075	12.24
652.521	11.93
652.968	12.07
653.414	11.89
653.861	12.32
654.307	11.8
654.753	12.18
655.2	12.14
655.646	11.72
656.092	12.02
656.539	12.25
656.985	12.1
657.431	12.16
657.877	12.42
658.324	11.85
658.77	12
659.216	12.06
659.662	12.24
660.108	12.63
660.554	12.09
661	12.27
661.446	12.38
661.892	12.2
662.338	12.58
662.784	12.37
663.23	12.33
663.675	12.75
664.121	12.15
664.567	12.45
665.013	12.62
665.458	12.43
665.904	12.25
666.35	11.83
666.795	11.88
667.241	12.34
667.687	12.33
668.132	12.03
668.578	12.27
669.023	12.36
669.469	12.35
669.914	12.28
670.359	12.46
670.805	12.13
671.25	12.5
671.695	11.91
672.141	12.23
672.586	12.07
673.031	12.12
673.476	12.45
673.922	12.5
674.367	12.49
674.812	12.2
675.257	12.35
675.702	12.13
676.147	12.27
676.592	12.39
677.037	12.3
677.482	12.32
677.927	12.15
678.372	11.94
678.817	12.48
679.261	12.58
679.706	12.39
680.151	12.31
680.596	12.08
681.04	12.62
681.485	12.25
681.93	12.87
682.374	12.58
682.819	12.67
683.264	12.29
683.708	12.22
684.153	12.6
684.597	12.48
685.042	12.84
685.486	12.59
685.93	12.44
686.375	12.6
686.819	12.88
687.263	12.51
687.708	12.32
688.152	12.55
688.596	12.31
689.04	12.63
689.485	12.77
689.929	12.26
690.373	12.51
690.817	12.65
691.261	12.19
691.705	12.54
692.149	13.14
692.593	13.1
693.037	12.88
693.481	12.56
693.925	12.52
694.369	12.57
694.812	12.63
695.256	12.64
695.7	12.43
696.144	12.71
696.587	12.61
697.031	12.81
697.475	12.58
697.918	12.52
698.362	12.46
698.806	12.4
699.249	12.49
699.693	12.64
700.136	12.64
700.58	12.97
701.023	12.74
701.466	12.69
701.91	12.84
702.353	12.44
702.796	12.49
703.24	12.66
703.683	12.51
704.126	12.5
704.569	12.7
705.013	12.87
705.456	12.56
705.899	12.72
706.342	12.82
706.785	12.8
707.228	12.68
707.671	12.57
708.114	12.35
708.557	12.7
709	12.54
709.443	12.2
709.886	12.69
710.328	12.74
710.771	12.54
711.214	12.6
711.657	12.49
712.099	13.05
712.542	12.96
712.985	13
713.427	12.78
713.87	12.86
714.313	12.63
714.755	12.6
715.198	12.64
715.64	12.93
716.083	12.67
716.525	12.99
716.967	12.96
717.41	12.73
717.852	12.76
718.295	13.05
718.737	12.98
719.179	12.99
719.621	12.73
720.063	12.8
720.506	12.6
720.948	12.98
721.39	12.91
721.832	12.82
722.274	13.22
722.716	12.77
723.158	13.06
723.6	13.12
724.042	13.32
724.484	12.96
724.926	12.71
725.368	12.68
725.81	13.02
726.251	13.17
726.693	13.03
727.135	12.76
727.577	13.36
728.018	13.2
728.46	13.08
728.902	12.71
729.343	12.95
729.785	12.8
730.226	13.07
730.668	12.9
731.109	13.25
731.551	12.68
731.992	12.89
732.434	13.23
732.875	12.92
733.316	13.09
733.758	13.18
734.199	13.41
734.64	13.09
735.081	12.91
735.523	12.73
735.964	13.35
736.405	13.2
736.846	13.28
737.287	13.1
737.728	13.09
738.169	13.22
738.61	13.28
739.051	12.95
739.492	13.18
739.933	12.74
740.374	13
740.815	12.88
741.256	13.12
741.696	13.22
742.137	13.37
742.578	13.27
743.019	13.27
743.459	13.15
743.9	13.37
744.341	13.27
744.781	13.53
745.222	13.41
745.662	13.31
746.103	13.05
746.543	13.15
746.984	13.63
747.424	13.35
747.865	13.12
748.305	13.5
748.745	13.22
749.186	13.1
749.626	13.23
750.066	13.56
750.506	13.45
750.947	13.04
751.387	13.26
751.827	13.22
752.267	13.49
752.707	12.94
753.147	13.34
753.587	13.25
754.027	13.47
754.467	13.51
754.907	13.39
755.347	13.37
755.787	13.21
756.227	13.59
756.667	13.72
757.107	13.36
757.546	13.63
757.986	13.31
758.426	12.86
758.865	13.09
759.305	13.65
759.745	13.3
760.184	13.02
760.624	13.27
761.063	13.22
761.503	13.41
761.943	13.04
762.382	13.53
762.821	13.29
763.261	13.43
763.7	13.61
764.14	13.29
764.579	13.47
765.018	13.79
765.457	13.31
765.897	13.38
766.336	13.39
766.775	13.5
767.214	13.7
767.653	13.47
768.092	13.44
768.531	13.65
768.97	13.56
769.409	13.7
769.848	13.35
770.287	13.85
770.726	13.53
771.165	13.6
771.604	13.65
772.043	13.61
772.482	14
772.92	13.61
773.359	13.81
773.798	13.65
774.237	13.55
774.675	13.39
775.114	13.73
775.553	13.86
775.991	13.65
776.43	13.62
776.868	13.45
777.307	13.89
777.745	13.71
778.184	13.64
778.622	13.32
779.06	13.6
779.499	13.82
779.937	13.78
780.375	13.78
780.814	13.66
781.252	13.56
781.69	13.97
782.128	13.82
782.566	13.61
783.004	13.72
783.443	13.81
783.881	13.65
784.319	13.6
784.757	13.7
785.195	13.76
785.633	13.59
786.071	13.84
786.508	13.82
786.946	13.75
787.384	13.54
787.822	13.67
788.26	13.77
788.697	13.5
789.135	13.7
789.573	13.6
790.011	13.97
790.448	13.48
790.886	14.07
791.323	14.34
791.761	13.93
792.198	13.89
792.636	13.83
793.073	13.9
793.511	14.12
793.948	13.88
794.386	13.95
794.823	14.13
795.26	13.94
795.698	13.85
796.135	14.22
796.572	13.67
797.009	14.03
797.446	13.74
797.884	14.01
798.321	13.78
798.758	13.85
799.195	13.94
799.632	13.97
800.069	13.69
800.506	14.09
800.943	14.1
801.38	14.09
801.817	14.02
802.254	14.06
802.69	14.26
803.127	13.8
803.564	14.29
804.001	13.78
804.438	14.14
804.874	13.99
805.311	13.97
805.748	13.88
806.184	13.97
806.621	14.08
807.057	13.99
807.494	14.04
807.93	14.21
808.367	14.15
808.803	14.19
809.24	14.11
809.676	14.15
810.112	14.25
810.549	14.14
810.985	14.23
811.421	14.08
811.857	13.89
812.294	14.22
812.73	14.3
813.166	14.21
813.602	14.2
814.038	14.11
814.474	14.12
814.91	14.43
815.346	14.5
815.782	14.21
816.218	14.21
816.654	14.06
817.09	14.26
817.526	14.22
817.962	14.38
818.398	14.26
818.833	14.75
819.269	14.17
819.705	14.17
820.141	14.2
820.576	14.25
821.012	14.53
821.447	14.3
821.883	14.25
822.319	14.42
822.754	14.52
823.19	14.07
823.625	14.24
824.061	14.34
824.496	14.67
824.931	14.26
825.367	14.53
825.802	14.5
826.237	14.46
826.673	14.37
827.108	14.29
827.543	14.36
827.978	14.41
828.413	14.33
828.849	14.27
829.284	14.45
829.719	14.47
830.154	14.57
830.589	14.51
831.024	14.33
831.459	14.32
831.894	14.66
832.329	14.46
832.763	14.27
833.198	14.57
833.633	14.21
834.068	14.59
834.503	14.42
834.937	14.25
835.372	14.5
835.807	14.54
836.241	14.35
836.676	14.5
837.111	14.57
837.545	14.53
837.98	14.62
838.414	14.32
838.849	14.49
839.283	14.73
839.717	14.32
840.152	14.63
840.586	14.49
841.021	14.52
841.455	14.71
841.889	14.7
842.323	14.37
842.758	14.77
843.192	14.56
843.626	14.83
844.06	14.8
844.494	14.56
844.928	14.36
845.362	14.65
845.796	14.82
846.23	14.61
846.664	14.6
847.098	14.61
847.532	14.6
847.966	14.82
848.4	14.49
848.834	14.69
849.267	14.7
849.701	14.75
850.135	14.48
850.569	14.76
851.002	14.76
851.436	14.66
851.87	14.83
852.303	14.93
852.737	14.59
853.17	14.82
853.604	14.91
854.037	15.13
854.471	14.69
854.904	14.94
855.337	14.77
855.771	14.92
856.204	14.59
856.637	14.84
857.071	14.7
857.504	15.13
857.937	15.01
858.37	15.06
858.804	15.03
859.237	15.1
859.67	14.99
860.103	15.14
860.536	15.02
860.969	15.06
861.402	15.05
861.835	15
862.268	15.2
862.701	14.98
863.134	15.11
863.566	14.92
863.999	14.93
864.432	15.03
864.865	14.91
865.298	15.19
865.73	15.03
866.163	15.02
866.596	15.05
867.028	15.2
867.461	14.93
867.893	15.32
868.326	15.12
868.758	14.98
869.191	15.03
869.623	15.06
870.056	15.28
870.488	15.22
870.92	15.01
871.353	15.15
871.785	15.08
872.217	15.05
872.65	15.01
873.082	15.04
873.514	15.18
873.946	15.02
874.378	15.17
874.81	15.03
875.243	15.43
875.675	15.04
876.107	15.44
876.539	15.15
876.971	15.23
877.403	15.31
877.834	15.3
878.266	15.31
878.698	15.44
879.13	15.26
879.562	15.28
879.994	15.35
880.425	15.3
880.857	15.49
881.289	15.33
881.72	15.23
882.152	15.37
882.584	15.48
883.015	15.17
883.447	15.32
883.878	15.55
884.31	15.36
884.741	15.47
885.173	15.62
885.604	15.51
886.035	15.39
886.467	15.48
886.898	15.48
887.329	15.42
887.76	15.64
888.192	15.6
888.623	15.45
889.054	15.41
889.485	15.6
889.916	15.42
890.347	15.5
890.778	15.53
891.209	15.25
891.64	15.59
892.071	15.79
892.502	15.55
892.933	15.48
893.364	15.72
893.795	15.8
894.226	15.47
894.657	15.46
895.087	15.6
895.518	15.63
895.949	15.9
896.38	15.97
896.81	15.54
897.241	15.69
897.671	15.64
898.102	15.83
898.533	15.85
898.963	15.67
899.394	15.71
899.824	15.67
900.254	15.76
900.685	15.81
901.115	15.74
901.546	15.85
901.976	15.59
902.406	15.56
902.836	15.91
903.267	15.88
903.697	15.87
904.127	15.84
904.557	15.56
904.987	16.05
905.417	15.74
905.847	15.82
906.277	15.71
906.707	15.86
907.137	15.9
907.567	15.87
907.997	15.69
908.427	16.02
908.857	15.87
909.287	15.98
909.717	16
910.146	15.85
910.576	16.03
911.006	15.67
911.436	15.89
911.865	16.11
912.295	15.9
912.724	15.88
913.154	16
913.584	15.92
914.013	16.01
914.443	15.96
914.872	15.76
915.302	16
915.731	16.17
916.16	16
916.59	16.06
917.019	15.98
917.448	16.11
917.878	15.97
918.307	16.06
918.736	15.94
919.165	16.15
919.594	16.2
920.023	16.21
920.452	16.17
920.882	16.2
921.311	16.01
921.74	16.15
922.169	16.1
922.597	16.19
923.026	16.07
923.455	16.01
923.884	16.09
924.313	16.03
924.742	16.08
925.171	16.28
925.599	16.42
926.028	16.1
926.457	16.31
926.885	16.25
927.314	16.22
927.743	16.38
928.171	16.26
928.6	16.15
929.028	16.17
929.457	16.24
929.885	16.41
930.314	16.21
930.742	16.35
931.17	16.4
931.599	16.09
932.027	16.53
932.455	16.38
932.884	16.23
933.312	16.64
933.74	16.31
934.168	16.57
934.596	16.39
935.025	16.36
935.453	16.41
935.881	16.34
936.309	16.45
936.737	16.28
937.165	16.15
937.593	16.36
938.021	16.54
938.449	16.56
938.876	16.52
939.304	16.42
939.732	16.6
940.16	16.49
940.588	16.87
941.015	16.43
941.443	16.41
941.871	16.52
942.298	16.92
942.726	16.83
943.154	16.75
943.581	16.77
944.009	16.6
944.436	16.49
944.864	16.92
945.291	16.74
945.718	16.79
946.146	16.78
946.573	16.66
947.001	16.96
947.428	16.78
947.855	17.03
948.282	16.64
948.71	17.05
949.137	16.83
949.564	16.69
949.991	16.66
950.418	16.8
950.845	16.63
951.272	17.05
951.699	16.8
952.126	16.99
952.553	16.96
952.98	16.93
953.407	16.87
953.834	17.06
954.261	16.99
954.688	16.74
955.114	16.8
955.541	16.83
955.968	16.86
956.395	16.83
956.821	16.84
957.248	16.96
957.674	16.88
958.101	16.67
958.528	16.95
958.954	16.84
959.381	16.89
959.807	16.89
960.234	17.01
960.66	17.01
961.086	16.86
961.513	16.94
961.939	17.25
962.365	17.16
962.792	17.24
963.218	17.06
963.644	17.21
964.07	17.04
964.496	17.09
964.923	17.16
965.349	17.23
965.775	17.27
966.201	17.27
966.627	17.11
967.053	17
967.479	17.11
967.905	17.18
968.331	17.31
968.756	17.15
969.182	17.26
969.608	17.24
970.034	17.32
970.46	17.13
970.885	17.08
971.311	17.3
971.737	17.2
972.162	17.16
972.588	17.15
973.014	17.23
973.439	17.5
973.865	17.2
974.29	17.3
974.716	17.02
975.141	17.32
975.567	17.28
975.992	17.26
976.417	17.29
976.843	17.62
977.268	17.5
977.693	17.74
978.119	17.67
978.544	17.84
978.969	17.79
979.394	17.97
979.819	17.92
980.244	17.79
980.669	18.01
981.095	17.8
981.52	18.08
981.945	17.92
982.369	17.95
982.794	18.02
983.219	18.09
983.644	18
984.069	17.85
984.494	17.87
984.919	17.72
985.343	17.79
985.768	17.75
986.193	17.73
986.618	17.67
987.042	17.95
987.467	17.81
987.891	17.83
988.316	17.66
988.741	18
989.165	17.9
989.59	18.17
990.014	18.19
990.438	18.13
990.863	18.13
991.287	18.25
991.712	18.12
992.136	18.08
992.56	18.05
992.984	18.03
993.409	18.17
993.833	18.18
994.257	18.17
994.681	18.11
995.105	17.95
995.529	18.2
995.953	18.23
996.377	18.35
996.801	18.03
997.225	18.14
997.649	18.14
998.073	18.24
998.497	18.3
998.921	18.1
999.345	18.2
999.769	18.06
1000.192	18.03
1000.616	18.14
1001.04	18.23
1001.464	18.26
1001.887	18.26
1002.311	18.3
1002.734	18
1003.158	18.05
1003.582	18.24
1004.005	18.07
1004.429	17.87
1004.852	17.95
1005.275	18.06
1005.699	17.86
1006.122	18.09
1006.546	17.94
1006.969	18.14
1007.392	17.96
1007.815	18.03
1008.239	18.22
1008.662	17.84
1009.085	18.08
1009.508	18.23
1009.931	18.22
1010.354	18.36
1010.778	18.05
1011.201	18.26
1011.624	18.17
1012.047	18.24
1012.469	18.28
1012.892	18.19
1013.315	18.32
1013.738	18.23
1014.161	18.42
1014.584	18.41
1015.007	18.45
1015.429	18.37
1015.852	18.38
1016.275	18.15
1016.697	18.3
1017.12	18.14
1017.543	18.3
1017.965	18.19
1018.388	18.3
1018.81	18.45
1019.233	18.54
1019.655	18.49
1020.078	18.63
1020.5	18.43
1020.922	18.5
1021.345	18.51
1021.767	18.27
1022.189	18.63
1022.612	18.74
1023.034	18.42
1023.456	18.84
1023.878	18.71
1024.301	18.81
1024.723	18.6
1025.145	18.7
1025.567	18.63
1025.989	18.87
1026.411	18.98
1026.833	18.92
1027.255	18.63
1027.677	18.64
1028.099	18.78
1028.52	18.82
1028.942	18.92
1029.364	18.7
1029.786	19.09
1030.208	18.91
1030.629	18.91
1031.051	18.9
1031.473	18.78
1031.894	19.27
1032.316	18.86
1032.738	18.94
1033.159	18.65
1033.581	19.05
1034.002	18.88
1034.424	18.78
1034.845	19.08
1035.267	18.8
1035.688	19.19
1036.109	19.02
1036.531	19.21
1036.952	18.87
1037.373	18.97
1037.794	18.98
1038.216	19.2
1038.637	19.29
1039.058	18.84
1039.479	19.35
1039.9	19.28
1040.321	19.28
1040.742	19.24
1041.163	19.46
1041.584	19.49
1042.005	19.22
1042.426	19.16
1042.847	19.63
1043.268	19.33
1043.689	19.21
1044.11	19.34
1044.53	19.26
1044.951	19.27
1045.372	19.31
1045.793	19.55
1046.213	19.2
1046.634	19.38
1047.055	19.41
1047.475	19.69
1047.896	19.35
1048.316	19.16
1048.737	19.43
1049.157	19.8
1049.578	19.15
1049.998	19.81
1050.419	19.7
1050.839	19.43
1051.259	19.42
1051.68	19.68
1052.1	19.76
1052.52	19.76
1052.94	19.43
1053.361	19.93
1053.781	19.69
1054.201	19.85
1054.621	19.66
1055.041	19.66
1055.461	19.91
1055.881	19.59
1056.301	19.67
1056.721	20.01
1057.141	20.1
1057.561	19.97
1057.981	20.05
1058.401	19.87
1058.82	19.94
1059.24	19.89
1059.66	20.06
1060.08	19.97
1060.499	19.76
1060.919	19.89
1061.339	20.02
1061.758	20.49
1062.178	20.31
1062.598	19.9
1063.017	20.16
1063.437	19.57
1063.856	19.98
1064.276	20.12
1064.695	20.05
1065.114	20.28
1065.534	20.31
1065.953	20.28
1066.372	20.01
1066.792	20.05
1067.211	20.06
1067.63	20.09
1068.049	20.42
1068.469	20.17
1068.888	20.23
1069.307	20.27
1069.726	20.46
1070.145	20.31
1070.564	20.08
1070.983	20.71
1071.402	20.64
1071.821	20.22
1072.24	20.45
1072.659	20.63
1073.078	20.06
1073.496	20.46
1073.915	20.44
1074.334	20.27
1074.753	21.08
1075.171	20.3
1075.59	20
1076.009	20.5
1076.427	20.3
1076.846	20.8
1077.265	20.7
1077.683	20.37
1078.102	20.83
1078.52	20.53
1078.939	20.96
1079.357	20.76
1079.776	20.92
1080.194	20.79
1080.612	20.62
1081.031	20.97
1081.449	21.17
1081.867	21.95
1082.285	20.83
1082.704	21.42
1083.122	20.97
1083.54	21.5
1083.958	21.17
1084.376	20.95
1084.794	21.37
1085.212	20.79
1085.63	21.33
1086.048	21.31
1086.466	21.44
1086.884	21.55
1087.302	20.96
1087.72	21.04
1088.138	21.34
1088.555	20.03
1088.973	21.71
1089.391	21.13
1089.809	21.95
1090.226	21.81
1090.644	21.85
1091.062	21.43
1091.479	22.03
1091.897	21.69
1092.314	21.48
1092.732	21.36
1093.15	22.1
1093.567	22.2
1093.984	21.3
1094.402	20.67
1094.819	21.42
1095.237	21.81
1095.654	21.82
1096.071	21.55
1096.488	21.46
1096.906	22.18
1097.323	21.99
1097.74	21.11
1098.157	20.86
1098.574	22.65
1098.991	21.04
1099.409	22.08
1099.826	21.27
1100.243	21.97
1100.66	22.01
1101.077	21.23
1101.494	22.71
1101.91	22.45
1102.327	21.68
1102.744	21.86
1103.161	21.78
1103.578	21.93
1103.994	21.46
1104.411	21.89
1104.828	21.83
1105.245	21.86
1105.661	21.82
1106.078	22.06
1106.494	22.85
1106.911	22.85
1107.328	22.76
1107.744	23.17
1108.161	22.68
1108.577	23.46
1108.993	22.28
1109.41	21.34
1109.826	22.57
1110.242	21.45
1110.659	23.19
1111.075	21.74
1111.491	24.21
1111.908	22.17
1112.324	22.16
1112.74	27.36
1113.156	23.54
1113.572	23.13
1113.988	23.13
1114.404	22.58
1114.82	22.45
1115.236	23.86
1115.652	23.04
1116.068	24.58
1116.484	21.49
1116.9	24.5
1117.316	23.56
1117.732	11.82
1118.147	35
1118.563	-25
1118.979	650
