Data from JCR0029_Black1_Reflection_00002.txt Node
Date: Fri Jul 31 12:55:24 ACST 2020
User: Stacey Dix
Spectrometer: MAYP113282
Scans to average: 1
Trigger mode: 0
Integration Time (sec): 1.000000E-1
Electric dark correction enabled: true
Boxcar width: 0
XAxis mode: Wavelengths
Number of Pixels in Spectrum: 2068
>>>>>Begin Spectral Data<<<<<
198.791	90.91
199.266	12.5
199.74	170
200.215	50
200.69	27.92
201.164	20.49
201.639	3.45
202.114	29.01
202.588	41.99
203.063	36.25
203.537	11.72
204.012	20.57
204.486	13.39
204.961	30.74
205.435	35.81
205.909	47.54
206.384	14.38
206.858	1.47
207.332	45.71
207.807	23.48
208.281	33.78
208.755	15.45
209.229	14.38
209.703	13.17
210.177	22.38
210.651	20.61
211.126	25.7
211.6	16.93
212.074	32.63
212.548	28.8
213.021	9.09
213.495	41.32
213.969	-2.21
214.443	31.34
214.917	22.57
215.391	13.16
215.864	13.45
216.338	10.11
216.812	17.81
217.286	14.11
217.759	24.96
218.233	11.13
218.706	11.87
219.18	18.25
219.654	14.26
220.127	15.01
220.6	9.09
221.074	16.62
221.547	8.31
222.021	17.69
222.494	15.03
222.967	15.46
223.441	12.79
223.914	11.63
224.387	4.53
224.86	8.92
225.334	12.5
225.807	7.4
226.28	6.29
226.753	7.7
227.226	6.47
227.699	5.22
228.172	6.93
228.645	7.1
229.118	1.85
229.591	7.68
230.064	5.67
230.537	7.26
231.01	5.79
231.482	4.5
231.955	5.6
232.428	2.93
232.901	3.12
233.373	4.41
233.846	5.04
234.319	3.67
234.791	3.05
235.264	4.16
235.736	2.09
236.209	4.5
236.681	4.05
237.154	4
237.626	4.77
238.099	4.81
238.571	2.79
239.044	4.96
239.516	3.42
239.988	4.43
240.46	3.87
240.933	3.09
241.405	4.01
241.877	4.52
242.349	4.84
242.821	3.53
243.293	4.24
243.765	3.23
244.237	3.81
244.71	3.58
245.181	4.21
245.653	3.98
246.125	3.94
246.597	4.98
247.069	3.42
247.541	2.76
248.013	4.02
248.485	4.25
248.956	4.04
249.428	2.88
249.9	3.87
250.371	2.75
250.843	4.3
251.315	4.44
251.786	3.56
252.258	3.11
252.729	4.04
253.201	3.37
253.672	2.39
254.144	3.06
254.615	3.26
255.086	3.26
255.558	4.13
256.029	3.52
256.5	2.84
256.972	2.59
257.443	3.38
257.914	2.36
258.385	2.91
258.856	2.65
259.327	2.99
259.799	2.63
260.27	2.79
260.741	2.13
261.212	2.87
261.683	3.12
262.154	2.61
262.624	1.88
263.095	2.2
263.566	2.85
264.037	2.64
264.508	2.14
264.979	2.38
265.449	2.84
265.92	2.22
266.391	2.84
266.861	2.8
267.332	2.27
267.803	2.77
268.273	3.13
268.744	2.68
269.214	2.9
269.685	2.68
270.155	2.14
270.626	3.17
271.096	2.15
271.566	2.81
272.037	2.56
272.507	3.14
272.977	2.36
273.448	3.21
273.918	2.32
274.388	2.63
274.858	2.03
275.328	1.87
275.798	2.13
276.268	2.67
276.738	2.55
277.208	2.46
277.678	2.38
278.148	2.94
278.618	2.47
279.088	3.56
279.558	2.71
280.028	2.13
280.498	2.77
280.968	2.48
281.437	1.89
281.907	3.01
282.377	2.78
282.847	1.97
283.316	1.84
283.786	2.15
284.255	2.5
284.725	2.46
285.194	2.06
285.664	2.84
286.133	2.22
286.603	1.69
287.072	2.47
287.542	2.53
288.011	2.09
288.48	1.97
288.95	2.54
289.419	2.68
289.888	1.67
290.357	2.77
290.827	1.99
291.296	2.03
291.765	1.5
292.234	2.9
292.703	1.59
293.172	2.93
293.641	1.77
294.11	1.87
294.579	2.08
295.048	2.21
295.517	1.89
295.986	2.67
296.455	2.43
296.923	3.2
297.392	2.3
297.861	2.59
298.33	2.25
298.798	1.95
299.267	3.4
299.736	1.71
300.204	2.45
300.673	2.86
301.141	1.91
301.61	2.3
302.079	2.04
302.547	2.48
303.015	1.87
303.484	1.79
303.952	1.76
304.421	1.95
304.889	2.42
305.357	2.3
305.825	2.14
306.294	2.47
306.762	1.99
307.23	2.98
307.698	2.65
308.166	2.29
308.634	2.02
309.103	2.24
309.571	2.69
310.039	2.76
310.507	2.84
310.975	2.6
311.442	2.19
311.91	2.47
312.378	2.95
312.846	2.15
313.314	2.36
313.782	2.7
314.249	2.87
314.717	2.9
315.185	1.77
315.652	2.73
316.12	1.59
316.588	2.31
317.055	2.68
317.523	3.03
317.99	3.13
318.458	3.04
318.925	2.66
319.393	3.04
319.86	3.32
320.328	1.91
320.795	3.21
321.262	3.6
321.73	2.27
322.197	4.07
322.664	3.02
323.131	4.58
323.598	4.6
324.066	3.8
324.533	3.41
325	6.09
325.467	5.53
325.934	5.28
326.401	6.15
326.868	6.09
327.335	6.86
327.802	8.06
328.269	7.87
328.735	8.1
329.202	9.41
329.669	8.57
330.136	9.25
330.603	10.74
331.069	10.08
331.536	10.55
332.003	10.62
332.469	11.35
332.936	11.5
333.402	12.04
333.869	12.16
334.336	11.37
334.802	10.89
335.268	11.61
335.735	12.06
336.201	12.75
336.668	12.43
337.134	11.81
337.6	11.92
338.067	11.33
338.533	12.34
338.999	12.29
339.465	11.76
339.931	11.33
340.398	13.14
340.864	11.56
341.33	12.38
341.796	13.04
342.262	11.73
342.728	12.22
343.194	12.16
343.66	11.89
344.126	11.63
344.592	12.54
345.057	12.23
345.523	11.5
345.989	12.75
346.455	11.73
346.921	12.71
347.386	11.45
347.852	11.94
348.318	10.33
348.783	12.82
349.249	10.95
349.714	11.06
350.18	11.85
350.645	11.25
351.111	11.84
351.576	10.98
352.042	11.94
352.507	11.25
352.973	11.68
353.438	10.24
353.903	12.65
354.369	11.06
354.834	12.01
355.299	11.66
355.764	12.45
356.229	10.43
356.695	11.15
357.16	10.7
357.625	12.25
358.09	11.12
358.555	11.91
359.02	11.59
359.485	11.59
359.95	12.35
360.415	11.55
360.879	11.77
361.344	11.04
361.809	13.38
362.274	11.56
362.739	11.95
363.203	11.72
363.668	12.13
364.133	11.92
364.597	12.31
365.062	11.62
365.527	11.83
365.991	12.42
366.456	10.92
366.92	12.97
367.385	12.04
367.849	12.15
368.314	12.05
368.778	12.18
369.242	13.26
369.707	12.94
370.171	12.47
370.635	13.63
371.1	12.05
371.564	13.16
372.028	13.76
372.492	11.06
372.956	11.71
373.42	12.34
373.884	12.41
374.348	12.89
374.812	12.82
375.276	12.74
375.74	11.93
376.204	12.12
376.668	12.92
377.132	12.87
377.596	11.26
378.06	12.47
378.524	13.39
378.987	12.88
379.451	13
379.915	13.13
380.378	13.65
380.842	12.42
381.306	13.54
381.769	12.95
382.233	13.57
382.696	12.92
383.16	13.2
383.623	12.39
384.087	12.86
384.55	12.9
385.014	12.07
385.477	14.27
385.94	12.17
386.404	13.65
386.867	14.01
387.33	12.9
387.793	13.61
388.256	13.87
388.72	14.02
389.183	12.98
389.646	13.72
390.109	15.17
390.572	13.64
391.035	12.69
391.498	13.2
391.961	14.94
392.424	13.42
392.887	13.57
393.35	13.43
393.812	13.18
394.275	13.4
394.738	14.09
395.201	13.81
395.664	14.04
396.126	13.98
396.589	13.94
397.052	12.76
397.514	14.26
397.977	13.69
398.439	13.24
398.902	13.81
399.364	13.54
399.827	13.82
400.289	14.32
400.752	14.43
401.214	13.26
401.676	12.94
402.139	13.45
402.601	13.72
403.063	13.19
403.525	13.62
403.988	14.28
404.45	13.44
404.912	14.66
405.374	13.77
405.836	12.67
406.298	15.12
406.76	13.64
407.222	12.96
407.684	13.58
408.146	14.36
408.608	14.29
409.07	14.14
409.532	13.84
409.994	13.13
410.456	13.91
410.917	13.02
411.379	14.63
411.841	13.97
412.303	13.66
412.764	14.01
413.226	13.25
413.687	13.42
414.149	13.42
414.611	13.77
415.072	14.19
415.534	14.46
415.995	14.12
416.457	13.3
416.918	13.92
417.379	14.32
417.841	14.16
418.302	13.64
418.763	14.04
419.225	14.06
419.686	14.3
420.147	12.89
420.608	14.74
421.069	13.93
421.53	14.62
421.991	13.63
422.453	15.08
422.914	15.44
423.375	14.31
423.836	14.85
424.297	14.33
424.757	15.97
425.218	13.68
425.679	15.49
426.14	13.74
426.601	14.9
427.062	15.89
427.522	14.66
427.983	16.2
428.444	15.52
428.904	14.27
429.365	15.37
429.826	13.19
430.286	16.21
430.747	15.72
431.207	15.87
431.668	16.98
432.128	16.27
432.589	15.37
433.049	15.67
433.509	15.89
433.97	17.44
434.43	16.62
434.89	14.23
435.351	13.79
435.811	16.53
436.271	16.14
436.731	15.52
437.191	16.04
437.651	15.8
438.112	16.89
438.572	16.87
439.032	16.01
439.492	15.94
439.952	17.45
440.412	14.99
440.871	15.43
441.331	16.62
441.791	17.79
442.251	16.46
442.711	14.62
443.171	15.43
443.63	16.89
444.09	16.29
444.55	16.62
445.009	16.61
445.469	17.04
445.929	16.6
446.388	16.24
446.848	15.8
447.307	17.21
447.767	16.74
448.226	17.76
448.686	17.09
449.145	14.96
449.604	16.27
450.064	16.9
450.523	17.63
450.982	16.81
451.442	15.88
451.901	18.86
452.36	14.31
452.819	15.63
453.278	16.98
453.737	17.22
454.197	18.24
454.656	15.31
455.115	16.76
455.574	16.36
456.033	16.33
456.492	15.36
456.95	14.69
457.409	16.59
457.868	17.05
458.327	16.92
458.786	15.63
459.245	17.76
459.703	16.33
460.162	16.73
460.621	15.69
461.079	17.27
461.538	16.63
461.997	16.87
462.455	16.56
462.914	16.35
463.372	14.91
463.831	15.48
464.289	16.58
464.748	17.23
465.206	16.43
465.664	16.26
466.123	15.28
466.581	15.72
467.039	17.28
467.497	16.49
467.956	17.59
468.414	16.74
468.872	15.37
469.33	15.85
469.788	17.18
470.246	16.47
470.704	16.61
471.162	15.1
471.62	19.57
472.078	16.58
472.536	14.98
472.994	17.99
473.452	15.32
473.91	17.97
474.368	15.7
474.826	15.51
475.283	17.34
475.741	16.08
476.199	16.13
476.656	18.29
477.114	15.58
477.572	17.19
478.029	19.42
478.487	16.11
478.944	17.05
479.402	17.96
479.859	16.6
480.317	15.23
480.774	18.11
481.232	18.11
481.689	16.03
482.146	15.54
482.604	17.07
483.061	18.19
483.518	17.37
483.975	15.81
484.433	15.54
484.89	18.54
485.347	15.38
485.804	16.45
486.261	16.25
486.718	17.17
487.175	16.68
487.632	15.88
488.089	16.6
488.546	18.35
489.003	17.31
489.46	16.42
489.917	16.95
490.373	18.06
490.83	17.5
491.287	17.05
491.744	15.03
492.2	16.05
492.657	15.98
493.114	17.79
493.57	16.11
494.027	17.85
494.484	16.97
494.94	16.63
495.397	17.45
495.853	17.64
496.31	18.81
496.766	16.88
497.222	17.71
497.679	16.81
498.135	18.45
498.591	16.83
499.048	17.19
499.504	18.03
499.96	17.53
500.416	14.89
500.872	15.04
501.329	15.43
501.785	17.53
502.241	16.3
502.697	18.18
503.153	17.81
503.609	15.8
504.065	19.26
504.521	16.26
504.977	19.4
505.432	16.41
505.888	16.91
506.344	15.96
506.8	18.67
507.256	18.44
507.711	16.04
508.167	18.34
508.623	17.31
509.078	17.9
509.534	17.54
509.99	18.11
510.445	17.93
510.901	17.43
511.356	18.76
511.812	17.12
512.267	14.86
512.722	17.73
513.178	16.75
513.633	16.44
514.089	17.55
514.544	16.92
514.999	16.71
515.454	17.52
515.91	16.14
516.365	16.44
516.82	17.51
517.275	16.68
517.73	17.12
518.185	17.38
518.64	16.73
519.095	17.07
519.55	14.75
520.005	17.72
520.46	16.76
520.915	16.63
521.37	17.13
521.825	17.53
522.28	15.77
522.734	16.64
523.189	15.97
523.644	16.89
524.099	16.34
524.553	16.34
525.008	17.61
525.462	17.43
525.917	16.45
526.372	15.64
526.826	17.5
527.281	15.53
527.735	16.91
528.19	16.69
528.644	17.29
529.098	16.89
529.553	16.34
530.007	16.07
530.461	15.93
530.916	16.51
531.37	16.04
531.824	17.52
532.278	15.95
532.732	17.82
533.186	16.28
533.641	17.5
534.095	17.12
534.549	16.13
535.003	17.13
535.457	18.08
535.911	19.12
536.365	17.72
536.818	16.63
537.272	18.84
537.726	16.92
538.18	15.84
538.634	18.1
539.087	17.87
539.541	16.67
539.995	16.74
540.449	17.35
540.902	15.95
541.356	17.16
541.809	16.66
542.263	15.77
542.716	17.28
543.17	16.75
543.623	16.91
544.077	17.81
544.53	17.49
544.984	16.22
545.437	16.35
545.89	16.7
546.344	17.42
546.797	20.06
547.25	17.91
547.703	18.35
548.157	17
548.61	17.48
549.063	17.63
549.516	17.75
549.969	18.02
550.422	17
550.875	17.01
551.328	18.59
551.781	16.75
552.234	18.23
552.687	17.83
553.14	17.24
553.592	16.84
554.045	16.5
554.498	18.6
554.951	16.22
555.404	18.41
555.856	17.11
556.309	17.93
556.762	16.22
557.214	17.31
557.667	17.98
558.119	18.92
558.572	16.61
559.024	17.53
559.477	17.4
559.929	17.59
560.382	17.94
560.834	17.91
561.286	17.33
561.739	17.58
562.191	16.81
562.643	17.04
563.095	18.04
563.548	15.55
564	17.18
564.452	17.05
564.904	16.36
565.356	17.31
565.808	17.33
566.26	16.37
566.712	17.79
567.164	18.3
567.616	16.56
568.068	17.8
568.52	18.11
568.972	17.56
569.424	17.06
569.876	17.68
570.327	17.79
570.779	16.85
571.231	17.98
571.682	17.41
572.134	17.25
572.586	17.28
573.037	17.53
573.489	17.52
573.941	17.43
574.392	16.47
574.844	17.48
575.295	18.64
575.746	16.25
576.198	16.52
576.649	17.34
577.101	16.92
577.552	17.73
578.003	17.55
578.454	16.88
578.906	16.86
579.357	17.49
579.808	17.72
580.259	17.17
580.71	17.8
581.161	17.16
581.612	17.28
582.064	16.33
582.515	17.43
582.965	17.73
583.416	17.59
583.867	16.58
584.318	16.49
584.769	18
585.22	16.64
585.671	16.83
586.122	17.34
586.572	17.3
587.023	19.28
587.474	16.16
587.924	18.23
588.375	17.11
588.826	17.72
589.276	17.32
589.727	16.88
590.177	16.26
590.628	17.39
591.078	16.25
591.529	17.28
591.979	17.23
592.429	17.4
592.88	18.42
593.33	18.24
593.78	17.56
594.231	16.72
594.681	17.84
595.131	17.71
595.581	17.95
596.031	17.56
596.481	16.27
596.932	17.61
597.382	17.63
597.832	17.54
598.282	17.99
598.732	17.87
599.182	16.19
599.632	17.6
600.081	17.36
600.531	19.34
600.981	17.06
601.431	15.98
601.881	17.58
602.33	17.06
602.78	17.18
603.23	17.54
603.679	16.4
604.129	17.79
604.579	17.32
605.028	17.1
605.478	17.01
605.927	18.26
606.377	17.62
606.826	18.25
607.276	18.36
607.725	17.17
608.175	17.18
608.624	18.17
609.073	18.5
609.522	18.1
609.972	16.71
610.421	18.12
610.87	18.21
611.319	17.74
611.768	17.79
612.218	17.31
612.667	18.45
613.116	17.26
613.565	18.5
614.014	17.7
614.463	17.71
614.912	17.19
615.361	17.47
615.81	17.83
616.258	17.64
616.707	18.34
617.156	18.29
617.605	17.35
618.054	17.71
618.502	18.25
618.951	18.41
619.4	17.17
619.848	18.11
620.297	17.59
620.745	18.16
621.194	17.85
621.642	18.09
622.091	17.45
622.539	17.98
622.988	17.28
623.436	17.73
623.885	17.88
624.333	17.95
624.781	18.92
625.23	18.34
625.678	18.5
626.126	17.54
626.574	17.21
627.022	17.03
627.471	17.69
627.919	17.26
628.367	17.29
628.815	18.09
629.263	17.8
629.711	17.49
630.159	18.06
630.607	17.72
631.055	17.69
631.503	18.27
631.95	17.97
632.398	17.07
632.846	17.89
633.294	17.99
633.742	17.3
634.189	18.61
634.637	18.32
635.085	18.01
635.532	16.96
635.98	17.88
636.427	17.72
636.875	17.45
637.323	18.12
637.77	17.36
638.217	18.64
638.665	17.09
639.112	18.13
639.56	16.95
640.007	17.3
640.454	17.74
640.902	17.78
641.349	17.44
641.796	17.42
642.243	18.52
642.69	17.53
643.138	17.66
643.585	18.52
644.032	17.61
644.479	18.09
644.926	17.58
645.373	16.68
645.82	18.44
646.267	17.88
646.714	17.49
647.161	17.8
647.607	18.4
648.054	17.79
648.501	18.08
648.948	17.32
649.395	18.06
649.841	18.24
650.288	17.61
650.735	17.33
651.181	17.45
651.628	17.97
652.075	17.28
652.521	17.33
652.968	17.52
653.414	17.65
653.861	17.15
654.307	17.94
654.753	18.15
655.2	17.55
655.646	16.64
656.092	17.58
656.539	18.71
656.985	17.97
657.431	18
657.877	18.23
658.324	17.68
658.77	18.87
659.216	17.61
659.662	17.52
660.108	18.2
660.554	17.36
661	17.57
661.446	18.07
661.892	17.63
662.338	17.29
662.784	18.18
663.23	17.49
663.675	17.72
664.121	18.44
664.567	18.69
665.013	17.6
665.458	18.68
665.904	17.92
666.35	16.74
666.795	17.58
667.241	18.1
667.687	18.02
668.132	17.34
668.578	17.64
669.023	18.05
669.469	17.48
669.914	18.35
670.359	17.92
670.805	18.33
671.25	17.61
671.695	17.66
672.141	18.15
672.586	17.68
673.031	18.66
673.476	17.15
673.922	18.16
674.367	18.24
674.812	18.47
675.257	17.85
675.702	17.68
676.147	17.67
676.592	17.91
677.037	17.29
677.482	18.4
677.927	18
678.372	17.64
678.817	17.24
679.261	18.28
679.706	17.93
680.151	18.07
680.596	18.29
681.04	17.51
681.485	17.69
681.93	17.83
682.374	18.09
682.819	18.17
683.264	18.65
683.708	18.11
684.153	18.28
684.597	17.98
685.042	17.63
685.486	18.49
685.93	17.77
686.375	17.7
686.819	18.18
687.263	18.27
687.708	18.28
688.152	18.35
688.596	17.93
689.04	17.28
689.485	17.77
689.929	18.61
690.373	17.92
690.817	18.72
691.261	17.22
691.705	18.01
692.149	17.99
692.593	17.88
693.037	17.96
693.481	18.1
693.925	18.56
694.369	18.03
694.812	18.1
695.256	18.1
695.7	18.28
696.144	17.79
696.587	18.44
697.031	17.89
697.475	17.93
697.918	18.42
698.362	17.73
698.806	18.01
699.249	17.47
699.693	17.77
700.136	18.02
700.58	17.6
701.023	17.52
701.466	17.95
701.91	18.13
702.353	18.18
702.796	17.66
703.24	17.74
703.683	18.6
704.126	18.33
704.569	17.61
705.013	17.76
705.456	18.47
705.899	17.81
706.342	17.85
706.785	18
707.228	18.11
707.671	18.47
708.114	18.06
708.557	18.32
709	19.02
709.443	18.04
709.886	18.51
710.328	18.35
710.771	17.6
711.214	18.09
711.657	18.45
712.099	18.55
712.542	18.53
712.985	18.29
713.427	17.83
713.87	18.86
714.313	17.95
714.755	18.11
715.198	17.9
715.64	17.76
716.083	18.56
716.525	17.86
716.967	17.61
717.41	18.11
717.852	17.42
718.295	18.93
718.737	17.96
719.179	17.92
719.621	18.57
720.063	18.86
720.506	18.17
720.948	18.08
721.39	18.8
721.832	17.84
722.274	18.21
722.716	18.42
723.158	17.9
723.6	17.97
724.042	18.12
724.484	17.93
724.926	18.19
725.368	18.27
725.81	18.21
726.251	17.87
726.693	18.21
727.135	18.27
727.577	17.95
728.018	18.15
728.46	17.82
728.902	18.35
729.343	17.66
729.785	18.7
730.226	18.17
730.668	18.08
731.109	18.53
731.551	18.26
731.992	18.81
732.434	18.29
732.875	18.4
733.316	18.42
733.758	18.16
734.199	18.39
734.64	18.37
735.081	18.44
735.523	19.07
735.964	17.99
736.405	18.54
736.846	18.16
737.287	18.82
737.728	17.37
738.169	18.92
738.61	18.68
739.051	18.31
739.492	18.09
739.933	18.63
740.374	18.69
740.815	17.94
741.256	18.81
741.696	18.4
742.137	18.41
742.578	19.09
743.019	18.31
743.459	18.89
743.9	18.45
744.341	18.34
744.781	18.72
745.222	18.55
745.662	18.03
746.103	17.98
746.543	18.01
746.984	18.33
747.424	18.34
747.865	18.31
748.305	18.17
748.745	18.5
749.186	18.18
749.626	18.78
750.066	18.36
750.506	18.08
750.947	17.75
751.387	18.52
751.827	18.86
752.267	18.44
752.707	18.92
753.147	18.33
753.587	18.01
754.027	18.63
754.467	18.44
754.907	18.57
755.347	18.38
755.787	18.47
756.227	18.69
756.667	18.31
757.107	18.7
757.546	18.84
757.986	18.53
758.426	18.7
758.865	18.58
759.305	18.94
759.745	18.11
760.184	19.16
760.624	19
761.063	19.04
761.503	18.76
761.943	18.18
762.382	18.28
762.821	18.8
763.261	18.66
763.7	18.6
764.14	18.92
764.579	19.46
765.018	18.31
765.457	18.26
765.897	18.67
766.336	18.41
766.775	18.85
767.214	18.19
767.653	18.81
768.092	18.67
768.531	18.85
768.97	18.51
769.409	18.27
769.848	19.19
770.287	18.47
770.726	18.7
771.165	18.89
771.604	18.57
772.043	18.95
772.482	18.98
772.92	18.55
773.359	17.96
773.798	19.08
774.237	18.94
774.675	19.06
775.114	18.77
775.553	18.77
775.991	18.54
776.43	18.58
776.868	18.91
777.307	18.47
777.745	18.08
778.184	19.04
778.622	19.12
779.06	19.33
779.499	18.79
779.937	19.07
780.375	18.78
780.814	18.53
781.252	18.87
781.69	18.7
782.128	18.44
782.566	18.44
783.004	18.45
783.443	18.62
783.881	18.47
784.319	18.32
784.757	19.28
785.195	18.88
785.633	19.28
786.071	18.71
786.508	18.7
786.946	18.94
787.384	18.58
787.822	18.89
788.26	18.54
788.697	18.82
789.135	18.87
789.573	19.07
790.011	19
790.448	18.86
790.886	19.07
791.323	18.47
791.761	18.8
792.198	18.95
792.636	19.34
793.073	18.74
793.511	18.93
793.948	19.03
794.386	19.39
794.823	19.14
795.26	18.8
795.698	19.11
796.135	18.91
796.572	18.38
797.009	18.85
797.446	19.19
797.884	18.68
798.321	19.14
798.758	19.01
799.195	19.11
799.632	18.87
800.069	19.55
800.506	19.22
800.943	18.47
801.38	19.22
801.817	19.58
802.254	18.92
802.69	19.09
803.127	19.1
803.564	19.23
804.001	19
804.438	19.16
804.874	19.15
805.311	19.17
805.748	19.52
806.184	19.05
806.621	19.36
807.057	19.28
807.494	19.48
807.93	19.37
808.367	19.06
808.803	19.15
809.24	19.29
809.676	19.62
810.112	19.36
810.549	19.75
810.985	19.2
811.421	19.41
811.857	18.86
812.294	19.02
812.73	19.53
813.166	19.04
813.602	19.58
814.038	18.87
814.474	19.23
814.91	19.17
815.346	19.6
815.782	19.12
816.218	19.72
816.654	19.18
817.09	19.31
817.526	19.11
817.962	19.17
818.398	19.68
818.833	18.97
819.269	19.93
819.705	19.3
820.141	19.33
820.576	19.14
821.012	19.22
821.447	19.59
821.883	20.12
822.319	19.24
822.754	18.92
823.19	19.35
823.625	19.68
824.061	19.6
824.496	19.9
824.931	19.23
825.367	19.23
825.802	19.44
826.237	19.42
826.673	19.87
827.108	19.52
827.543	19.8
827.978	19.32
828.413	19.68
828.849	19.52
829.284	19.6
829.719	19.71
830.154	19.75
830.589	19.74
831.024	19.31
831.459	19.91
831.894	19.06
832.329	19.84
832.763	19.91
833.198	19.39
833.633	19.66
834.068	19.88
834.503	19.68
834.937	19.79
835.372	19.91
835.807	20.12
836.241	19.77
836.676	19.52
837.111	19.54
837.545	19.69
837.98	19.58
838.414	19.82
838.849	19.91
839.283	19.77
839.717	19.7
840.152	19.45
840.586	19.79
841.021	19.42
841.455	19.71
841.889	19.51
842.323	20.02
842.758	19.73
843.192	19.37
843.626	19.88
844.06	20.42
844.494	19.69
844.928	20.3
845.362	19.78
845.796	20.51
846.23	19.66
846.664	20.11
847.098	19.82
847.532	20.04
847.966	19.43
848.4	20.01
848.834	19.96
849.267	20.32
849.701	19.62
850.135	20.08
850.569	19.73
851.002	19.62
851.436	19.47
851.87	19.86
852.303	19.72
852.737	19.85
853.17	20.58
853.604	20.15
854.037	20.27
854.471	19.85
854.904	20.08
855.337	19.86
855.771	20.06
856.204	20.33
856.637	20.18
857.071	19.88
857.504	19.87
857.937	19.67
858.37	20.32
858.804	19.85
859.237	20.09
859.67	20.33
860.103	19.82
860.536	19.64
860.969	20.07
861.402	19.54
861.835	19.95
862.268	19.69
862.701	20.12
863.134	20.21
863.566	20.32
863.999	20.57
864.432	19.85
864.865	20.21
865.298	20.3
865.73	19.92
866.163	20.22
866.596	20.08
867.028	20.25
867.461	19.92
867.893	20.11
868.326	19.97
868.758	20.05
869.191	20.29
869.623	19.92
870.056	20.04
870.488	20.22
870.92	20.37
871.353	20.17
871.785	20.21
872.217	20.2
872.65	20.02
873.082	20.33
873.514	20.3
873.946	20.19
874.378	20.67
874.81	20.14
875.243	20.31
875.675	20.28
876.107	20.39
876.539	20.56
876.971	20.25
877.403	20.56
877.834	20.46
878.266	20
878.698	20.46
879.13	20.18
879.562	20.4
879.994	20.28
880.425	20.56
880.857	20.85
881.289	20.01
881.72	20.49
882.152	20.25
882.584	20.89
883.015	20.27
883.447	20.53
883.878	20.67
884.31	20.08
884.741	20.75
885.173	20.42
885.604	20.7
886.035	20.6
886.467	20.82
886.898	20.48
887.329	20.82
887.76	20.55
888.192	20.89
888.623	20.48
889.054	20.49
889.485	20.57
889.916	21.04
890.347	20.48
890.778	20.9
891.209	20.6
891.64	20.96
892.071	20.7
892.502	21.16
892.933	20.46
893.364	20.81
893.795	20.66
894.226	20.57
894.657	20.48
895.087	21.03
895.518	21.42
895.949	21.06
896.38	21.18
896.81	20.9
897.241	21.34
897.671	20.99
898.102	21.08
898.533	20.82
898.963	21.2
899.394	20.92
899.824	20.73
900.254	20.5
900.685	20.97
901.115	20.96
901.546	21.36
901.976	20.96
902.406	20.82
902.836	20.92
903.267	20.86
903.697	21.06
904.127	21.09
904.557	21.07
904.987	20.73
905.417	20.92
905.847	21.21
906.277	21.06
906.707	21.13
907.137	21.43
907.567	21.11
907.997	21.06
908.427	20.91
908.857	21.27
909.287	21.08
909.717	21.05
910.146	21.1
910.576	21.3
911.006	21.1
911.436	20.92
911.865	20.94
912.295	21.34
912.724	20.98
913.154	21.23
913.584	21.24
914.013	21.42
914.443	21.09
914.872	21.55
915.302	21.14
915.731	20.96
916.16	21.38
916.59	21.32
917.019	21.05
917.448	21.51
917.878	21.08
918.307	21.24
918.736	21.26
919.165	21.08
919.594	21.52
920.023	21.06
920.452	21.52
920.882	21.4
921.311	21.41
921.74	21.34
922.169	21.48
922.597	21.73
923.026	21.32
923.455	21.12
923.884	21.43
924.313	21.53
924.742	21.34
925.171	21.54
925.599	21.15
926.028	21.46
926.457	21.24
926.885	21.23
927.314	21.25
927.743	21.38
928.171	21.37
928.6	21.22
929.028	21.83
929.457	21.66
929.885	21.47
930.314	21.7
930.742	21.43
931.17	21.49
931.599	21.56
932.027	21.67
932.455	21.19
932.884	21.97
933.312	21.43
933.74	21.57
934.168	22.34
934.596	21.69
935.025	21.71
935.453	21.53
935.881	21.62
936.309	21.73
936.737	21.55
937.165	22.03
937.593	22.19
938.021	21.71
938.449	21.53
938.876	21.23
939.304	21.68
939.732	21.62
940.16	21.98
940.588	21.74
941.015	21.54
941.443	21.52
941.871	21.43
942.298	22.01
942.726	21.91
943.154	21.23
943.581	21.89
944.009	21.77
944.436	21.25
944.864	21.56
945.291	21.16
945.718	21.72
946.146	21.93
946.573	21.35
947.001	22.12
947.428	22.05
947.855	21.96
948.282	21.59
948.71	21.39
949.137	22.15
949.564	22.02
949.991	21.62
950.418	21.93
950.845	21.82
951.272	21.65
951.699	22.51
952.126	21.84
952.553	22.57
952.98	22.15
953.407	21.93
953.834	22.1
954.261	22.07
954.688	21.69
955.114	21.67
955.541	21.91
955.968	21.59
956.395	22.21
956.821	22.1
957.248	21.77
957.674	22.02
958.101	22.17
958.528	21.84
958.954	22.09
959.381	22.2
959.807	22.37
960.234	22.18
960.66	22.09
961.086	22.25
961.513	22.04
961.939	22.16
962.365	22.19
962.792	22.16
963.218	22.17
963.644	22.29
964.07	22.31
964.496	22.3
964.923	22.37
965.349	22.34
965.775	22.56
966.201	22.23
966.627	21.76
967.053	22.39
967.479	21.99
967.905	22.48
968.331	22.3
968.756	22.47
969.182	21.9
969.608	22.03
970.034	22.36
970.46	22.34
970.885	22.61
971.311	22.24
971.737	22.46
972.162	22.21
972.588	22.16
973.014	22.08
973.439	22.38
973.865	22.14
974.29	22.4
974.716	22.78
975.141	22.28
975.567	22.59
975.992	22.83
976.417	22.76
976.843	22.64
977.268	22.76
977.693	22.68
978.119	22.52
978.544	22.51
978.969	22.75
979.394	22.75
979.819	22.44
980.244	22.58
980.669	22.6
981.095	22.58
981.52	22.94
981.945	22.65
982.369	22.7
982.794	22.67
983.219	22.86
983.644	22.63
984.069	22.57
984.494	23.13
984.919	22.61
985.343	23.03
985.768	23.04
986.193	22.8
986.618	22.9
987.042	23.03
987.467	22.7
987.891	22.71
988.316	22.88
988.741	22.82
989.165	22.61
989.59	22.63
990.014	22.65
990.438	22.69
990.863	22.96
991.287	22.89
991.712	22.7
992.136	22.84
992.56	22.83
992.984	23.15
993.409	22.83
993.833	22.72
994.257	22.73
994.681	22.99
995.105	23.08
995.529	23.09
995.953	23.03
996.377	23.28
996.801	23.21
997.225	23.27
997.649	23.27
998.073	23.17
998.497	23.29
998.921	22.84
999.345	23.34
999.769	23.28
1000.192	23.47
1000.616	23.08
1001.04	23.3
1001.464	23.3
1001.887	23.17
1002.311	23.22
1002.734	23.22
1003.158	23.45
1003.582	23.27
1004.005	23.54
1004.429	23.46
1004.852	23.4
1005.275	23.02
1005.699	23.01
1006.122	23.4
1006.546	23.45
1006.969	23.76
1007.392	23.69
1007.815	22.97
1008.239	23.44
1008.662	23.56
1009.085	23.8
1009.508	23.71
1009.931	23.71
1010.354	23.87
1010.778	23.66
1011.201	23.83
1011.624	23.22
1012.047	23.73
1012.469	23.43
1012.892	23.95
1013.315	23.9
1013.738	23.67
1014.161	23.86
1014.584	23.8
1015.007	23.6
1015.429	23.33
1015.852	23.81
1016.275	23.35
1016.697	23.75
1017.12	23.26
1017.543	23.5
1017.965	23.94
1018.388	24.11
1018.81	23.87
1019.233	23.73
1019.655	23.85
1020.078	23.47
1020.5	24.19
1020.922	23.48
1021.345	23.68
1021.767	24.34
1022.189	23.95
1022.612	23.98
1023.034	23.53
1023.456	24.12
1023.878	23.97
1024.301	23.81
1024.723	23.91
1025.145	24.08
1025.567	23.87
1025.989	23.92
1026.411	24.27
1026.833	23.76
1027.255	23.73
1027.677	23.87
1028.099	23.85
1028.52	23.77
1028.942	23.95
1029.364	23.83
1029.786	23.62
1030.208	24.15
1030.629	23.87
1031.051	24.05
1031.473	24.22
1031.894	24.05
1032.316	24.36
1032.738	24.23
1033.159	24.02
1033.581	24.31
1034.002	24.14
1034.424	24.56
1034.845	24.36
1035.267	24.18
1035.688	24.48
1036.109	24.21
1036.531	24.54
1036.952	24.16
1037.373	24.34
1037.794	24.48
1038.216	23.97
1038.637	24.28
1039.058	24.78
1039.479	24.81
1039.9	24.23
1040.321	24.16
1040.742	24.55
1041.163	23.44
1041.584	24.59
1042.005	24.8
1042.426	24.38
1042.847	24.77
1043.268	24.91
1043.689	24.62
1044.11	24.24
1044.53	24.73
1044.951	24.98
1045.372	24.53
1045.793	24.55
1046.213	24.81
1046.634	24.72
1047.055	24.35
1047.475	24.78
1047.896	24.85
1048.316	24.72
1048.737	24.76
1049.157	25.23
1049.578	24.58
1049.998	24.93
1050.419	24.48
1050.839	24.31
1051.259	24.72
1051.68	24.88
1052.1	24.69
1052.52	25.38
1052.94	24.96
1053.361	24.88
1053.781	24.4
1054.201	25.24
1054.621	24.95
1055.041	24.54
1055.461	24.66
1055.881	24.91
1056.301	24.78
1056.721	24.89
1057.141	25.53
1057.561	25.11
1057.981	24.87
1058.401	24.65
1058.82	24.57
1059.24	25.24
1059.66	24.9
1060.08	25.5
1060.499	25.4
1060.919	25.55
1061.339	25.33
1061.758	25.8
1062.178	25.43
1062.598	24.79
1063.017	25.08
1063.437	25.02
1063.856	25.58
1064.276	24.68
1064.695	24.58
1065.114	25.92
1065.534	25.19
1065.953	25.34
1066.372	25.67
1066.792	25.4
1067.211	25.29
1067.63	25.62
1068.049	25.07
1068.469	24.84
1068.888	24.93
1069.307	25.39
1069.726	25.04
1070.145	25.75
1070.564	24.93
1070.983	25.17
1071.402	24.64
1071.821	25.26
1072.24	25.47
1072.659	25.64
1073.078	25.11
1073.496	25.45
1073.915	25.52
1074.334	25.15
1074.753	25.38
1075.171	26.2
1075.59	24.87
1076.009	25.3
1076.427	25.22
1076.846	24.91
1077.265	26.42
1077.683	25.76
1078.102	24.78
1078.52	26.53
1078.939	25.99
1079.357	25.48
1079.776	25.41
1080.194	25.05
1080.612	24.98
1081.031	25.82
1081.449	25.22
1081.867	28.34
1082.285	26.64
1082.704	25.74
1083.122	25.84
1083.54	26.59
1083.958	26.32
1084.376	26.33
1084.794	25.47
1085.212	26.37
1085.63	25.65
1086.048	27.03
1086.466	25.67
1086.884	26.95
1087.302	25.38
1087.72	25.96
1088.138	24.9
1088.555	25.47
1088.973	25.14
1089.391	26.5
1089.809	25.38
1090.226	26.52
1090.644	24.52
1091.062	25.36
1091.479	26.26
1091.897	26.53
1092.314	26.11
1092.732	26.43
1093.15	26.8
1093.567	26.52
1093.984	26.97
1094.402	25.97
1094.819	25.51
1095.237	26.08
1095.654	27.03
1096.071	25.47
1096.488	26.28
1096.906	25.7
1097.323	25.83
1097.74	25.97
1098.157	26.56
1098.574	26.85
1098.991	26.41
1099.409	25.16
1099.826	24.55
1100.243	25.84
1100.66	26.12
1101.077	27.3
1101.494	27.54
1101.91	27.44
1102.327	25.17
1102.744	28.56
1103.161	25.33
1103.578	26.14
1103.994	26.91
1104.411	24.72
1104.828	26.32
1105.245	27.43
1105.661	27.88
1106.078	27.35
1106.494	27.72
1106.911	26.95
1107.328	27.1
1107.744	25.89
1108.161	24.59
1108.577	27.86
1108.993	27.85
1109.41	25.74
1109.826	27.81
1110.242	23.52
1110.659	27.47
1111.075	29.68
1111.491	26.73
1111.908	27.82
1112.324	25.08
1112.74	29.51
1113.156	29.97
1113.572	25.14
1113.988	27.18
1114.404	26.7
1114.82	27.26
1115.236	28.62
1115.652	27.73
1116.068	25.77
1116.484	24.03
1116.9	27.81
1117.316	28.39
1117.732	23.53
1118.147	17.07
1118.563	-100
1118.979	125
