Data from JCR0031_Black1_Reflection_00001.txt Node
Date: Fri Jul 31 14:29:39 ACST 2020
User: Stacey Dix
Spectrometer: MAYP113282
Scans to average: 1
Trigger mode: 0
Integration Time (sec): 1.000000E-1
Electric dark correction enabled: true
Boxcar width: 0
XAxis mode: Wavelengths
Number of Pixels in Spectrum: 2068
>>>>>Begin Spectral Data<<<<<
198.791	0
199.266	77.78
199.74	166.67
200.215	33.33
200.69	30.82
201.164	8.18
201.639	9.78
202.114	18.7
202.588	19.92
203.063	36.33
203.537	22.81
204.012	39.11
204.486	22.22
204.961	9.91
205.435	39.58
205.909	27.51
206.384	33.96
206.858	14.91
207.332	-1.89
207.807	23.81
208.281	28.25
208.755	28.82
209.229	34.05
209.703	25.08
210.177	16.79
210.651	8.68
211.126	23.21
211.6	32.86
212.074	25.88
212.548	44.54
213.021	27.32
213.495	24.89
213.969	21.65
214.443	32.13
214.917	19.22
215.391	28.1
215.864	26.51
216.338	22.9
216.812	14.38
217.286	26.22
217.759	15.4
218.233	23.62
218.706	17.06
219.18	16.34
219.654	20.13
220.127	14.41
220.6	12.67
221.074	9.71
221.547	10.33
222.021	13.42
222.494	14.06
222.967	16.22
223.441	10.24
223.914	13.8
224.387	12.3
224.86	10.23
225.334	6.44
225.807	13.13
226.28	9.88
226.753	8.65
227.226	11.27
227.699	9.61
228.172	11.21
228.645	9.19
229.118	7.96
229.591	6.55
230.064	8.05
230.537	7.45
231.01	7
231.482	7.03
231.955	11.14
232.428	7.29
232.901	6.89
233.373	7.35
233.846	8.72
234.319	9.37
234.791	6.43
235.264	7.95
235.736	6.31
236.209	8.53
236.681	6.33
237.154	7.56
237.626	6.67
238.099	6.24
238.571	7.35
239.044	7.05
239.516	6.37
239.988	7
240.46	7.33
240.933	6.21
241.405	7.27
241.877	6.85
242.349	6.22
242.821	6.74
243.293	6.11
243.765	6.75
244.237	6.69
244.71	6.64
245.181	6.03
245.653	7.15
246.125	6.88
246.597	7
247.069	7.53
247.541	6.8
248.013	6.41
248.485	7.57
248.956	7.26
249.428	6.33
249.9	7.42
250.371	6.71
250.843	6.65
251.315	5.04
251.786	6.09
252.258	6.53
252.729	6.1
253.201	5.79
253.672	4.79
254.144	6.12
254.615	6.19
255.086	5.49
255.558	6.75
256.029	5.78
256.5	5.52
256.972	5.02
257.443	5.83
257.914	4.69
258.385	5.3
258.856	5.65
259.327	5.6
259.799	5.75
260.27	5.48
260.741	5.25
261.212	5.48
261.683	6.14
262.154	6.11
262.624	5.57
263.095	5.31
263.566	5.39
264.037	5.21
264.508	5.77
264.979	5.71
265.449	5.34
265.92	6.01
266.391	5.49
266.861	5.23
267.332	5.68
267.803	5.42
268.273	5.37
268.744	5.4
269.214	5.04
269.685	4.85
270.155	5.7
270.626	4.68
271.096	5.02
271.566	4.93
272.037	5.13
272.507	5.52
272.977	5.68
273.448	5.41
273.918	5.01
274.388	5.75
274.858	5.18
275.328	5.9
275.798	4.74
276.268	5.92
276.738	5.16
277.208	5.81
277.678	5.33
278.148	4.78
278.618	4.37
279.088	5.37
279.558	5.96
280.028	5.73
280.498	5.31
280.968	5.53
281.437	5.93
281.907	5.23
282.377	4.74
282.847	5.66
283.316	4.98
283.786	5.3
284.255	4.38
284.725	4.95
285.194	4.79
285.664	5.6
286.133	4.54
286.603	4.53
287.072	4.77
287.542	4.95
288.011	4.75
288.48	4.91
288.95	5.14
289.419	4.86
289.888	5.05
290.357	4.73
290.827	4.69
291.296	4.5
291.765	4.89
292.234	5.44
292.703	5.18
293.172	4.99
293.641	4.65
294.11	4.63
294.579	4.96
295.048	4.2
295.517	5.4
295.986	4.53
296.455	5.29
296.923	5.46
297.392	4.28
297.861	5.63
298.33	5.08
298.798	5.21
299.267	6.4
299.736	4.71
300.204	4.96
300.673	4.1
301.141	5.74
301.61	5.8
302.079	4.77
302.547	5.1
303.015	5.11
303.484	4.68
303.952	5.27
304.421	4.38
304.889	4.83
305.357	4.04
305.825	5.09
306.294	4.67
306.762	5.54
307.23	4.89
307.698	4.84
308.166	5.23
308.634	5.33
309.103	5.11
309.571	4.47
310.039	5.69
310.507	5.29
310.975	4.58
311.442	5.39
311.91	5.22
312.378	4.94
312.846	5.69
313.314	4.92
313.782	5.57
314.249	5.36
314.717	5.1
315.185	4.83
315.652	5.73
316.12	5.25
316.588	5.79
317.055	5.52
317.523	5.39
317.99	5.33
318.458	5.28
318.925	6.36
319.393	6.1
319.86	5.31
320.328	5.84
320.795	6.37
321.262	5.89
321.73	6.17
322.197	5.06
322.664	6.4
323.131	6.11
323.598	6.02
324.066	5.93
324.533	6.07
325	6.58
325.467	6.59
325.934	6.31
326.401	6.95
326.868	7.6
327.335	7
327.802	8.28
328.269	6.81
328.735	7.35
329.202	6.77
329.669	7.85
330.136	7.93
330.603	7.86
331.069	7.86
331.536	8.47
332.003	7.65
332.469	7.96
332.936	8.61
333.402	7.14
333.869	7.25
334.336	7.12
334.802	7.58
335.268	8.41
335.735	7.08
336.201	7.04
336.668	7.7
337.134	7.92
337.6	7.66
338.067	6.85
338.533	7.91
338.999	7.53
339.465	7.03
339.931	7
340.398	8.01
340.864	7.66
341.33	7.58
341.796	8.2
342.262	7.18
342.728	7.31
343.194	7.4
343.66	7.92
344.126	6.98
344.592	7.88
345.057	7.89
345.523	8.14
345.989	7.58
346.455	7.79
346.921	9.18
347.386	7.83
347.852	8.62
348.318	8.67
348.783	9.42
349.249	8.26
349.714	8.4
350.18	8.67
350.645	7.58
351.111	8.84
351.576	8.43
352.042	7.95
352.507	8.53
352.973	8.11
353.438	8.24
353.903	8.9
354.369	8.45
354.834	8.93
355.299	8.31
355.764	9.25
356.229	8.3
356.695	8.48
357.16	8.69
357.625	9.11
358.09	9.73
358.555	9.47
359.02	9.24
359.485	9.43
359.95	9.77
360.415	10.39
360.879	9.52
361.344	8.55
361.809	10.43
362.274	9.44
362.739	11.31
363.203	10.31
363.668	9.85
364.133	9.91
364.597	9.58
365.062	11.43
365.527	12
365.991	11.04
366.456	10.61
366.92	10.03
367.385	12.1
367.849	11.22
368.314	12.38
368.778	12.43
369.242	11.58
369.707	12.72
370.171	11.63
370.635	12.31
371.1	13.42
371.564	12.02
372.028	12
372.492	13.91
372.956	13.18
373.42	12.29
373.884	13.18
374.348	12.67
374.812	13.81
375.276	12.26
375.74	13.68
376.204	13.78
376.668	11.98
377.132	13.79
377.596	13.68
378.06	13.05
378.524	14.16
378.987	13.32
379.451	14.03
379.915	14.23
380.378	14.13
380.842	13.91
381.306	15.47
381.769	13.45
382.233	14.61
382.696	14.67
383.16	14.95
383.623	14.45
384.087	14.49
384.55	15.14
385.014	14.02
385.477	14.87
385.94	14.93
386.404	14.65
386.867	15.16
387.33	13.73
387.793	14.56
388.256	14.59
388.72	14.93
389.183	13.98
389.646	14.97
390.109	16.23
390.572	14.66
391.035	15.41
391.498	14.78
391.961	13.55
392.424	15.06
392.887	13.89
393.35	13.76
393.812	14.69
394.275	15.75
394.738	14.18
395.201	15.04
395.664	15.12
396.126	14.29
396.589	15.3
397.052	15.31
397.514	14.91
397.977	14.17
398.439	15
398.902	14.98
399.364	14.99
399.827	14.75
400.289	15.39
400.752	15.56
401.214	14.71
401.676	15.53
402.139	15.45
402.601	14.93
403.063	15.19
403.525	15.47
403.988	15.3
404.45	15.71
404.912	15.85
405.374	14.81
405.836	15.66
406.298	16.09
406.76	15.56
407.222	15.52
407.684	15.2
408.146	14.02
408.608	14.81
409.07	15.06
409.532	15.7
409.994	15.14
410.456	15.17
410.917	15.69
411.379	15.99
411.841	16.62
412.303	15.08
412.764	15.19
413.226	16.8
413.687	15.54
414.149	16.14
414.611	16.82
415.072	16.66
415.534	15.51
415.995	15.43
416.457	16.4
416.918	15.98
417.379	16.66
417.841	16.87
418.302	15.66
418.763	16.66
419.225	16.81
419.686	16.19
420.147	16.92
420.608	16.31
421.069	17.29
421.53	16.74
421.991	15.92
422.453	17.68
422.914	18.2
423.375	15.66
423.836	16.7
424.297	16.95
424.757	16.6
425.218	17.2
425.679	16.94
426.14	17.54
426.601	18.36
427.062	18.11
427.522	17.27
427.983	17.6
428.444	17.1
428.904	18.8
429.365	18.53
429.826	18.61
430.286	19.15
430.747	19.05
431.207	18.22
431.668	18.5
432.128	20.17
432.589	18.88
433.049	19.91
433.509	20.25
433.97	20.76
434.43	16.78
434.89	20.33
435.351	20.4
435.811	20.07
436.271	19.73
436.731	21.99
437.191	19.08
437.651	18.71
438.112	21.3
438.572	20.23
439.032	18.97
439.492	18.95
439.952	19.39
440.412	18.81
440.871	21.66
441.331	19.73
441.791	21.87
442.251	23.16
442.711	21.79
443.171	20.57
443.63	19.11
444.09	19.84
444.55	20.46
445.009	23.11
445.469	21.88
445.929	20.76
446.388	20.91
446.848	21.39
447.307	22.19
447.767	20.92
448.226	21.27
448.686	21.26
449.145	21.72
449.604	20.82
450.064	21.19
450.523	21.54
450.982	21.23
451.442	22.03
451.901	19.68
452.36	21.64
452.819	20.17
453.278	21.39
453.737	20.81
454.197	23.03
454.656	21
455.115	22.86
455.574	22.47
456.033	21.3
456.492	21.77
456.95	22.05
457.409	22.23
457.868	22.71
458.327	22.83
458.786	24.72
459.245	21.35
459.703	22.31
460.162	22.2
460.621	21.99
461.079	21.99
461.538	22.57
461.997	21.69
462.455	21.41
462.914	23.9
463.372	22.71
463.831	23.42
464.289	23.34
464.748	23.58
465.206	23.98
465.664	22.71
466.123	21.6
466.581	22.31
467.039	22.95
467.497	21.15
467.956	22.19
468.414	25.73
468.872	21.29
469.33	23.22
469.788	22.62
470.246	24.08
470.704	21.78
471.162	25.67
471.62	22.95
472.078	22.34
472.536	24.28
472.994	23.71
473.452	22.89
473.91	22.01
474.368	22.68
474.826	22.35
475.283	24.18
475.741	22.13
476.199	22.27
476.656	25.46
477.114	23.93
477.572	20.56
478.029	23.35
478.487	22.36
478.944	23.45
479.402	22.35
479.859	23.08
480.317	24.55
480.774	20.89
481.232	23.58
481.689	23.26
482.146	24.87
482.604	22.89
483.061	24.35
483.518	23.76
483.975	23.43
484.433	23.8
484.89	24.17
485.347	22.71
485.804	23.03
486.261	23.54
486.718	22.74
487.175	25.5
487.632	22.89
488.089	24.25
488.546	21.69
489.003	25.31
489.46	22.6
489.917	23.87
490.373	24.21
490.83	24.6
491.287	23.43
491.744	22.68
492.2	24.39
492.657	24.97
493.114	22.72
493.57	24.18
494.027	23.76
494.484	25.25
494.94	22.38
495.397	23.78
495.853	24.82
496.31	24.36
496.766	21.75
497.222	22.91
497.679	24.48
498.135	25.43
498.591	23.53
499.048	23.43
499.504	24.34
499.96	24.72
500.416	23.52
500.872	24.46
501.329	25.55
501.785	22.16
502.241	23.44
502.697	23.41
503.153	21.97
503.609	23.3
504.065	22.71
504.521	23.6
504.977	22.77
505.432	24.62
505.888	25.68
506.344	23.31
506.8	22.98
507.256	23.68
507.711	24.47
508.167	23.03
508.623	23.29
509.078	22.63
509.534	24.58
509.99	23.78
510.445	23.74
510.901	23.44
511.356	22.71
511.812	23.12
512.267	24.4
512.722	22.07
513.178	23.24
513.633	24.75
514.089	24.52
514.544	24.58
514.999	25.62
515.454	23.8
515.91	23.96
516.365	23.55
516.82	25.52
517.275	24.29
517.73	23.33
518.185	23.36
518.64	24.42
519.095	23.5
519.55	25.04
520.005	23.84
520.46	23.77
520.915	23.73
521.37	24.55
521.825	22.56
522.28	24.03
522.734	24.3
523.189	22.21
523.644	24.91
524.099	25.38
524.553	24.1
525.008	24.34
525.462	25.39
525.917	25.16
526.372	24.09
526.826	24.62
527.281	25.82
527.735	24.42
528.19	23.92
528.644	25.22
529.098	24.19
529.553	24.96
530.007	24.38
530.461	25.39
530.916	24.63
531.37	25.23
531.824	23.69
532.278	25.64
532.732	24.5
533.186	23.38
533.641	24.15
534.095	25.4
534.549	25.92
535.003	23.23
535.457	24.87
535.911	25.23
536.365	24.94
536.818	25.5
537.272	24.54
537.726	26.15
538.18	24.69
538.634	25.88
539.087	24.86
539.541	24.86
539.995	25.19
540.449	25.56
540.902	26.41
541.356	25.14
541.809	25.7
542.263	26.82
542.716	25.82
543.17	23.59
543.623	25.4
544.077	24.81
544.53	26.87
544.984	24.23
545.437	26.79
545.89	25.73
546.344	26.76
546.797	27.64
547.25	25.69
547.703	25.37
548.157	26.87
548.61	26.42
549.063	25.85
549.516	23.19
549.969	26.36
550.422	28.42
550.875	25.8
551.328	26.68
551.781	27.28
552.234	26.55
552.687	25.91
553.14	28.77
553.592	25.43
554.045	27.34
554.498	26.9
554.951	25.3
555.404	25.64
555.856	27.58
556.309	27.69
556.762	26.37
557.214	25.83
557.667	27.05
558.119	26.49
558.572	26.91
559.024	25.83
559.477	27.37
559.929	26.79
560.382	25.71
560.834	26.75
561.286	28.07
561.739	27.47
562.191	27.63
562.643	26.6
563.095	26.88
563.548	27.62
564	28.07
564.452	25.57
564.904	27.45
565.356	27.07
565.808	27.61
566.26	28.21
566.712	27.47
567.164	27.37
567.616	26.63
568.068	27.16
568.52	26.08
568.972	25.91
569.424	27.45
569.876	27.05
570.327	26.86
570.779	28.32
571.231	26.76
571.682	28.03
572.134	28.38
572.586	27.49
573.037	27.58
573.489	28.38
573.941	26.69
574.392	28.19
574.844	27.47
575.295	27.26
575.746	28.59
576.198	28.41
576.649	27.86
577.101	28.3
577.552	27.76
578.003	28.63
578.454	27.75
578.906	27.69
579.357	27.78
579.808	28.31
580.259	28.04
580.71	27.66
581.161	27.22
581.612	28.43
582.064	27.84
582.515	27.49
582.965	28.5
583.416	28.28
583.867	27.35
584.318	27.67
584.769	28.53
585.22	28.55
585.671	28.45
586.122	29.29
586.572	27.86
587.023	28.55
587.474	26.83
587.924	27.76
588.375	29.49
588.826	28.41
589.276	27.82
589.727	28.35
590.177	27.43
590.628	28.57
591.078	27.76
591.529	28.62
591.979	28.92
592.429	28.38
592.88	27.87
593.33	28.31
593.78	27.49
594.231	29.74
594.681	28.89
595.131	28.32
595.581	27.88
596.031	29.61
596.481	29.41
596.932	28.53
597.382	28.05
597.832	28.39
598.282	27.45
598.732	28.49
599.182	28.47
599.632	28.02
600.081	28.34
600.531	27.84
600.981	26.89
601.431	29.62
601.881	28.52
602.33	29.36
602.78	28.49
603.23	28.57
603.679	28.01
604.129	27.3
604.579	28.26
605.028	27.43
605.478	27.73
605.927	28.73
606.377	29.45
606.826	28.48
607.276	29.26
607.725	30.12
608.175	29.94
608.624	28.38
609.073	27.32
609.522	28.94
609.972	28.09
610.421	27.74
610.87	28.68
611.319	28.9
611.768	29.26
612.218	29.23
612.667	29.97
613.116	28.67
613.565	29.06
614.014	29.63
614.463	30.22
614.912	28.03
615.361	29.37
615.81	28.76
616.258	28.68
616.707	28.73
617.156	29.48
617.605	30.01
618.054	28.05
618.502	27.61
618.951	28.71
619.4	28.77
619.848	29.33
620.297	28.93
620.745	29.11
621.194	29.28
621.642	29.03
622.091	28.99
622.539	29.66
622.988	28.29
623.436	28.09
623.885	29.02
624.333	29.49
624.781	28.53
625.23	29.3
625.678	28.58
626.126	29.19
626.574	28.95
627.022	27.97
627.471	29.33
627.919	28.89
628.367	30
628.815	29.06
629.263	29.47
629.711	29.82
630.159	29.12
630.607	29.37
631.055	29.35
631.503	29.8
631.95	29.54
632.398	29.8
632.846	29.54
633.294	30.08
633.742	29.09
634.189	28.94
634.637	28.8
635.085	30.04
635.532	28.67
635.98	29.31
636.427	29.51
636.875	29.31
637.323	29.21
637.77	29.6
638.217	30.18
638.665	29.32
639.112	28.96
639.56	29.01
640.007	29.37
640.454	29.6
640.902	29.7
641.349	29.8
641.796	30.32
642.243	30.23
642.69	28.99
643.138	29.6
643.585	29.94
644.032	29.3
644.479	28.62
644.926	29.98
645.373	29.35
645.82	30.08
646.267	29.4
646.714	29.2
647.161	28.71
647.607	29.83
648.054	29.61
648.501	30
648.948	29.95
649.395	29.61
649.841	30.05
650.288	30.15
650.735	29.13
651.181	29.62
651.628	30.03
652.075	29.83
652.521	30.07
652.968	29.72
653.414	28.96
653.861	30.25
654.307	29.51
654.753	29.55
655.2	29.94
655.646	28.76
656.092	30.67
656.539	30.62
656.985	31.5
657.431	30.17
657.877	30.35
658.324	29.46
658.77	30.63
659.216	30.3
659.662	30.01
660.108	29.25
660.554	29.83
661	29.87
661.446	30
661.892	30.29
662.338	30.33
662.784	30.82
663.23	29.86
663.675	29.35
664.121	30.04
664.567	29.87
665.013	30.66
665.458	29.64
665.904	29.72
666.35	30.05
666.795	29.29
667.241	30.69
667.687	29.12
668.132	29.47
668.578	30.24
669.023	30.28
669.469	30.95
669.914	29.75
670.359	29.29
670.805	29.73
671.25	31.12
671.695	30.36
672.141	30.77
672.586	29.56
673.031	30.38
673.476	30.09
673.922	29.87
674.367	30.75
674.812	29.64
675.257	30.97
675.702	30.03
676.147	30.11
676.592	30.6
677.037	29.21
677.482	29.83
677.927	30.25
678.372	30.62
678.817	31.28
679.261	30.74
679.706	29.7
680.151	30.23
680.596	30.96
681.04	29.93
681.485	30.66
681.93	30.75
682.374	30.18
682.819	29.64
683.264	30.52
683.708	30.48
684.153	30.81
684.597	30.76
685.042	31.34
685.486	30.07
685.93	30.77
686.375	30.33
686.819	30.52
687.263	30.17
687.708	30.96
688.152	30.58
688.596	31.58
689.04	31.1
689.485	31
689.929	30.68
690.373	30.96
690.817	31.1
691.261	29.69
691.705	30.52
692.149	30.54
692.593	31.15
693.037	31.27
693.481	31.2
693.925	31.01
694.369	30.03
694.812	31.15
695.256	31.07
695.7	30.6
696.144	31.27
696.587	30.61
697.031	30.95
697.475	31.14
697.918	31.16
698.362	30.79
698.806	31.03
699.249	31.41
699.693	31.56
700.136	31.17
700.58	31.35
701.023	31.74
701.466	31.55
701.91	31.11
702.353	30.97
702.796	30.94
703.24	31.04
703.683	31.26
704.126	31.71
704.569	31.83
705.013	31.5
705.456	31.81
705.899	30.63
706.342	31.31
706.785	30.81
707.228	31.96
707.671	31.63
708.114	32
708.557	30.47
709	32.35
709.443	31.85
709.886	31.49
710.328	31.56
710.771	32.14
711.214	31.9
711.657	31.99
712.099	32.17
712.542	32.18
712.985	31.56
713.427	31.82
713.87	32.37
714.313	32.39
714.755	32.02
715.198	31.43
715.64	31.73
716.083	32.52
716.525	31.41
716.967	31.55
717.41	31.97
717.852	31.82
718.295	31.87
718.737	32.19
719.179	32.06
719.621	32.2
720.063	31.91
720.506	31.27
720.948	32.31
721.39	31.76
721.832	32.05
722.274	33.09
722.716	31.53
723.158	32.22
723.6	32.42
724.042	32.67
724.484	32.03
724.926	32.11
725.368	32.07
725.81	31.89
726.251	31.99
726.693	32.81
727.135	32.89
727.577	33.38
728.018	32.25
728.46	32.81
728.902	32.57
729.343	32.32
729.785	31.76
730.226	32.98
730.668	31.86
731.109	32.92
731.551	32.66
731.992	32.59
732.434	32.76
732.875	32.88
733.316	33.3
733.758	32.19
734.199	32.84
734.64	32.55
735.081	33.57
735.523	32.95
735.964	32.3
736.405	32.41
736.846	32.98
737.287	32.43
737.728	32.22
738.169	33.47
738.61	33.42
739.051	32.66
739.492	31.95
739.933	33.1
740.374	32.35
740.815	32.91
741.256	33.03
741.696	32.63
742.137	32.84
742.578	33.82
743.019	33.51
743.459	32.97
743.9	32.38
744.341	33.04
744.781	32.41
745.222	32.35
745.662	33.02
746.103	33.2
746.543	33.09
746.984	32.67
747.424	32.35
747.865	33.35
748.305	32.94
748.745	32.63
749.186	33.66
749.626	32.76
750.066	32.56
750.506	33.54
750.947	33.48
751.387	31.93
751.827	33.11
752.267	33.13
752.707	32.83
753.147	32.92
753.587	32.77
754.027	33.45
754.467	33.52
754.907	32.81
755.347	32.63
755.787	33.72
756.227	33.65
756.667	33.86
757.107	32.96
757.546	33.97
757.986	33.12
758.426	33.51
758.865	33.13
759.305	33.53
759.745	33.46
760.184	32.85
760.624	33.54
761.063	33.94
761.503	33.96
761.943	32.94
762.382	33.85
762.821	33.24
763.261	34.04
763.7	33.56
764.14	32.86
764.579	33.1
765.018	34.44
765.457	33.75
765.897	33.18
766.336	33
766.775	33.58
767.214	33.81
767.653	33.51
768.092	33.34
768.531	33.47
768.97	33.71
769.409	33.41
769.848	33.67
770.287	33.99
770.726	33.49
771.165	33.71
771.604	32.98
772.043	32.86
772.482	33.67
772.92	33.98
773.359	33.54
773.798	33.83
774.237	34.18
774.675	34.05
775.114	33.54
775.553	34.48
775.991	33.56
776.43	33.8
776.868	33.67
777.307	33.84
777.745	33.62
778.184	34.3
778.622	33.44
779.06	34.15
779.499	33.74
779.937	34.31
780.375	33.52
780.814	34.55
781.252	34.12
781.69	33.81
782.128	34.03
782.566	33.66
783.004	33.87
783.443	34.18
783.881	35.01
784.319	33.93
784.757	34.7
785.195	33.97
785.633	34.38
786.071	32.98
786.508	34.49
786.946	34.23
787.384	34.17
787.822	33.91
788.26	33.41
788.697	34.19
789.135	34.12
789.573	33.91
790.011	34.89
790.448	34.04
790.886	33.79
791.323	34.07
791.761	33.73
792.198	33.55
792.636	34.51
793.073	34.66
793.511	34.28
793.948	34.38
794.386	33.82
794.823	34.04
795.26	34.51
795.698	34.26
796.135	34.36
796.572	33.96
797.009	33.82
797.446	34.42
797.884	34.01
798.321	34.55
798.758	35.11
799.195	34.37
799.632	34.71
800.069	34.54
800.506	34.1
800.943	34.45
801.38	34.43
801.817	34.86
802.254	34.6
802.69	33.7
803.127	34.37
803.564	34.26
804.001	33.96
804.438	34.26
804.874	34.03
805.311	34.32
805.748	34.33
806.184	34.33
806.621	34.43
807.057	34.95
807.494	34.57
807.93	34.26
808.367	34.42
808.803	34.29
809.24	34.31
809.676	34.82
810.112	34.06
810.549	34.37
810.985	34.23
811.421	34.64
811.857	34.74
812.294	33.99
812.73	34.43
813.166	35.18
813.602	34.58
814.038	35.09
814.474	34.56
814.91	34.61
815.346	34.28
815.782	34.56
816.218	34.57
816.654	34.63
817.09	34.77
817.526	35.18
817.962	34.61
818.398	34.37
818.833	35.08
819.269	34.37
819.705	34.87
820.141	34.72
820.576	35.3
821.012	34.21
821.447	35.78
821.883	35.02
822.319	35
822.754	34.87
823.19	34.74
823.625	34.91
824.061	35.14
824.496	34.3
824.931	34.75
825.367	35.34
825.802	34.59
826.237	34.83
826.673	35.45
827.108	34.37
827.543	35.05
827.978	35.08
828.413	35.26
828.849	35.31
829.284	34.56
829.719	35.1
830.154	35.11
830.589	35.13
831.024	34.81
831.459	34.72
831.894	34.88
832.329	35.2
832.763	34.75
833.198	35.11
833.633	35.21
834.068	34.92
834.503	35.11
834.937	35.1
835.372	34.75
835.807	36.18
836.241	35.01
836.676	35.45
837.111	35.02
837.545	35.13
837.98	35.6
838.414	34.98
838.849	35.55
839.283	35.7
839.717	35.56
840.152	35.92
840.586	34.83
841.021	35.39
841.455	35.62
841.889	35.63
842.323	35.07
842.758	35.63
843.192	35.41
843.626	35.23
844.06	36.12
844.494	35.32
844.928	35.62
845.362	35.28
845.796	35.72
846.23	35.74
846.664	35.62
847.098	35.78
847.532	34.64
847.966	34.95
848.4	35.34
848.834	35.66
849.267	35.3
849.701	35.21
850.135	35.54
850.569	34.8
851.002	35.56
851.436	36.06
851.87	34.97
852.303	35.69
852.737	35.99
853.17	35.44
853.604	35.84
854.037	35.3
854.471	35.06
854.904	36.63
855.337	35.82
855.771	35.52
856.204	35.38
856.637	35.65
857.071	35.34
857.504	35.45
857.937	35.88
858.37	35.09
858.804	35.66
859.237	35.98
859.67	35.58
860.103	35.58
860.536	35.69
860.969	35.62
861.402	35.8
861.835	35.63
862.268	35.31
862.701	35.65
863.134	35.22
863.566	35.97
863.999	35.87
864.432	35.75
864.865	35.65
865.298	35.58
865.73	35.94
866.163	35.9
866.596	35.7
867.028	36.12
867.461	35.78
867.893	36.3
868.326	35.61
868.758	35.78
869.191	35.7
869.623	35.68
870.056	35.62
870.488	36.03
870.92	35.98
871.353	35.93
871.785	35.93
872.217	35.44
872.65	36.01
873.082	35.89
873.514	35.85
873.946	35.88
874.378	35.83
874.81	36.45
875.243	36.14
875.675	36.31
876.107	36.23
876.539	36.39
876.971	36.16
877.403	35.92
877.834	36.18
878.266	35.61
878.698	36.11
879.13	36.18
879.562	35.98
879.994	35.97
880.425	36.21
880.857	36.14
881.289	35.75
881.72	36.61
882.152	35.85
882.584	36.1
883.015	35.98
883.447	35.7
883.878	36.41
884.31	35.75
884.741	35.64
885.173	36.58
885.604	36.44
886.035	36.62
886.467	36.51
886.898	37.1
887.329	35.6
887.76	36.15
888.192	36.23
888.623	36.41
889.054	36.22
889.485	35.88
889.916	36.15
890.347	36.07
890.778	36.38
891.209	36.2
891.64	36.01
892.071	36.14
892.502	36.07
892.933	36.02
893.364	36.96
893.795	36.17
894.226	36.01
894.657	35.86
895.087	36.05
895.518	36.56
895.949	36.91
896.38	36.15
896.81	36.91
897.241	36.5
897.671	36.53
898.102	36.79
898.533	36.16
898.963	36.15
899.394	36.01
899.824	36.76
900.254	36.31
900.685	36.9
901.115	36.37
901.546	36.82
901.976	36.45
902.406	36.47
902.836	36.4
903.267	36.61
903.697	36.58
904.127	36.84
904.557	36.9
904.987	36.4
905.417	36.45
905.847	36.44
906.277	36.83
906.707	36.78
907.137	36.29
907.567	37.12
907.997	37.02
908.427	36.48
908.857	37.24
909.287	36.7
909.717	36.54
910.146	36.94
910.576	36.94
911.006	36.61
911.436	36.46
911.865	36.68
912.295	36.59
912.724	36.21
913.154	36.98
913.584	36.63
914.013	36.58
914.443	36.3
914.872	36.55
915.302	36.78
915.731	36.65
916.16	37.03
916.59	36.89
917.019	36.71
917.448	37.09
917.878	36.64
918.307	36.86
918.736	37.06
919.165	36.7
919.594	36.4
920.023	36.92
920.452	36.53
920.882	36.71
921.311	37.03
921.74	36.84
922.169	36.66
922.597	36.83
923.026	36.32
923.455	36.95
923.884	37.19
924.313	37.02
924.742	36.65
925.171	36.64
925.599	36.67
926.028	37.08
926.457	36.94
926.885	36.59
927.314	37.08
927.743	37.01
928.171	37.19
928.6	37.06
929.028	37.39
929.457	37.19
929.885	37.12
930.314	36.65
930.742	36.77
931.17	37.21
931.599	36.79
932.027	36.77
932.455	36.64
932.884	37.39
933.312	36.61
933.74	37.08
934.168	36.68
934.596	37.04
935.025	36.75
935.453	36.63
935.881	37.03
936.309	36.89
936.737	36.91
937.165	37.31
937.593	37.55
938.021	37.09
938.449	36.78
938.876	37.23
939.304	37.04
939.732	37.52
940.16	37.43
940.588	37.15
941.015	37.54
941.443	37.6
941.871	36.58
942.298	37.71
942.726	37.35
943.154	36.79
943.581	36.6
944.009	37.04
944.436	37.33
944.864	37.15
945.291	37.42
945.718	37.41
946.146	36.84
946.573	36.86
947.001	36.73
947.428	36.92
947.855	37.63
948.282	36.75
948.71	37.46
949.137	37.58
949.564	37.36
949.991	36.75
950.418	37.33
950.845	37.13
951.272	37.4
951.699	37.28
952.126	36.83
952.553	37.24
952.98	36.94
953.407	37.57
953.834	37.37
954.261	36.85
954.688	37.43
955.114	37.51
955.541	37.34
955.968	37.26
956.395	36.78
956.821	37.77
957.248	37.47
957.674	36.92
958.101	37.24
958.528	37.13
958.954	37.25
959.381	37.87
959.807	37.44
960.234	37.31
960.66	37.18
961.086	37.33
961.513	37.39
961.939	37.3
962.365	37.7
962.792	37.27
963.218	37.44
963.644	37.21
964.07	37.55
964.496	37.77
964.923	37.11
965.349	37.77
965.775	37.73
966.201	37.35
966.627	37.33
967.053	37.42
967.479	37.59
967.905	37.44
968.331	37.37
968.756	37.93
969.182	37.65
969.608	37.3
970.034	37.91
970.46	37.27
970.885	37.37
971.311	37.55
971.737	37.51
972.162	37.68
972.588	37.59
973.014	37.64
973.439	37.27
973.865	37.96
974.29	37.79
974.716	37.51
975.141	37.69
975.567	37.77
975.992	37.75
976.417	37.26
976.843	37.39
977.268	37.98
977.693	37.98
978.119	37.28
978.544	37.56
978.969	37.81
979.394	37.88
979.819	37.84
980.244	37.66
980.669	37.83
981.095	37.68
981.52	37.98
981.945	38.09
982.369	38
982.794	37.89
983.219	38.2
983.644	37.91
984.069	37.52
984.494	37.79
984.919	37.36
985.343	38.06
985.768	38.2
986.193	37.64
986.618	37.82
987.042	38.31
987.467	38.2
987.891	37.93
988.316	37.8
988.741	37.96
989.165	38.08
989.59	38.29
990.014	38.05
990.438	37.76
990.863	38
991.287	38.42
991.712	38.18
992.136	37.87
992.56	38.04
992.984	37.95
993.409	38.17
993.833	38.04
994.257	37.89
994.681	38.37
995.105	37.71
995.529	38.14
995.953	37.95
996.377	37.55
996.801	38.28
997.225	38.2
997.649	38.03
998.073	38.47
998.497	38.13
998.921	38.24
999.345	38.19
999.769	37.84
1000.192	38.1
1000.616	38.17
1001.04	38.16
1001.464	38.74
1001.887	38.47
1002.311	37.7
1002.734	38.47
1003.158	38.12
1003.582	38.47
1004.005	37.76
1004.429	38.61
1004.852	38.28
1005.275	38.31
1005.699	38.54
1006.122	38.31
1006.546	38.47
1006.969	38.53
1007.392	38.14
1007.815	38.64
1008.239	38.04
1008.662	38.31
1009.085	38.12
1009.508	38.41
1009.931	38.17
1010.354	38.53
1010.778	38.59
1011.201	38.51
1011.624	38.64
1012.047	38.97
1012.469	38.22
1012.892	38.15
1013.315	38.42
1013.738	38.21
1014.161	38.19
1014.584	38.87
1015.007	38.65
1015.429	38.55
1015.852	38.28
1016.275	38.46
1016.697	38.53
1017.12	38.61
1017.543	38.64
1017.965	38.11
1018.388	38.56
1018.81	38.8
1019.233	38.34
1019.655	38.97
1020.078	38.71
1020.5	38.58
1020.922	38.3
1021.345	38.2
1021.767	38.58
1022.189	38.39
1022.612	38.9
1023.034	38.71
1023.456	38.36
1023.878	38.45
1024.301	38.86
1024.723	38.44
1025.145	38.41
1025.567	38.58
1025.989	38.7
1026.411	38.71
1026.833	38.9
1027.255	38.75
1027.677	38.84
1028.099	38.45
1028.52	38.75
1028.942	39.01
1029.364	38.68
1029.786	38.34
1030.208	38.92
1030.629	39.36
1031.051	38.78
1031.473	38.89
1031.894	38.73
1032.316	38.89
1032.738	39.27
1033.159	38.54
1033.581	38.74
1034.002	38.72
1034.424	39.02
1034.845	38.63
1035.267	38.66
1035.688	38.73
1036.109	38.07
1036.531	38.8
1036.952	38.72
1037.373	38.91
1037.794	38.29
1038.216	38.83
1038.637	39.39
1039.058	38.5
1039.479	38.71
1039.9	38.74
1040.321	38.48
1040.742	38.66
1041.163	39.37
1041.584	38.05
1042.005	38.63
1042.426	38.65
1042.847	39.13
1043.268	38.56
1043.689	38.86
1044.11	38.74
1044.53	39.45
1044.951	39.02
1045.372	38.44
1045.793	39.24
1046.213	38.85
1046.634	39.12
1047.055	38.56
1047.475	38.35
1047.896	38.68
1048.316	38.99
1048.737	39.09
1049.157	39.37
1049.578	39.26
1049.998	38.4
1050.419	39.76
1050.839	38.93
1051.259	38.94
1051.68	39.15
1052.1	39.1
1052.52	38.72
1052.94	39.03
1053.361	38.63
1053.781	38.61
1054.201	39.47
1054.621	38.96
1055.041	38.86
1055.461	39.27
1055.881	38.81
1056.301	38.84
1056.721	38.97
1057.141	39.69
1057.561	38.79
1057.981	38.78
1058.401	38.56
1058.82	38.65
1059.24	39.29
1059.66	39.12
1060.08	39.34
1060.499	39.35
1060.919	38.54
1061.339	39.58
1061.758	38.69
1062.178	38.97
1062.598	38.66
1063.017	38.65
1063.437	39.45
1063.856	39.24
1064.276	38.67
1064.695	38.99
1065.114	39.52
1065.534	40.26
1065.953	38.96
1066.372	39.43
1066.792	39.78
1067.211	39.41
1067.63	38.35
1068.049	39.38
1068.469	38.71
1068.888	38.81
1069.307	38.84
1069.726	39.05
1070.145	38.88
1070.564	39.54
1070.983	38.75
1071.402	40.82
1071.821	39.45
1072.24	39.96
1072.659	39.68
1073.078	39.04
1073.496	38.39
1073.915	39.66
1074.334	39.27
1074.753	38.54
1075.171	39.54
1075.59	40.03
1076.009	38.51
1076.427	39.9
1076.846	38.88
1077.265	38.97
1077.683	38
1078.102	39.54
1078.52	39.08
1078.939	39.05
1079.357	39.38
1079.776	39.31
1080.194	39.45
1080.612	39.54
1081.031	39.06
1081.449	40.18
1081.867	38.65
1082.285	40.64
1082.704	37.6
1083.122	39.2
1083.54	39.46
1083.958	39.63
1084.376	39.01
1084.794	38.77
1085.212	39.91
1085.63	39.21
1086.048	39.72
1086.466	39.45
1086.884	38.1
1087.302	38.29
1087.72	40.04
1088.138	39.69
1088.555	39.34
1088.973	40.12
1089.391	39.36
1089.809	38.49
1090.226	41.12
1090.644	39.38
1091.062	39.06
1091.479	37.88
1091.897	39.25
1092.314	39.35
1092.732	39.44
1093.15	39.08
1093.567	40.05
1093.984	40.53
1094.402	38.56
1094.819	39.14
1095.237	39.1
1095.654	40.55
1096.071	38.63
1096.488	39.05
1096.906	39.47
1097.323	38.36
1097.74	38.54
1098.157	37.41
1098.574	38.8
1098.991	38.73
1099.409	40.06
1099.826	39.31
1100.243	39.41
1100.66	41.19
1101.077	39.35
1101.494	38.19
1101.91	38.92
1102.327	39.69
1102.744	38.44
1103.161	39.45
1103.578	38.39
1103.994	39.12
1104.411	38.62
1104.828	38.46
1105.245	40.86
1105.661	40.11
1106.078	38.78
1106.494	39.49
1106.911	40.66
1107.328	39.69
1107.744	40.98
1108.161	40.53
1108.577	37.61
1108.993	41.43
1109.41	38.89
1109.826	38.63
1110.242	37.96
1110.659	36.68
1111.075	40.68
1111.491	38.99
1111.908	38.49
1112.324	39.47
1112.74	39.89
1113.156	36.27
1113.572	39.12
1113.988	41.39
1114.404	36.97
1114.82	39.12
1115.236	38.3
1115.652	37.26
1116.068	37.56
1116.484	40.08
1116.9	37.09
1117.316	40.06
1117.732	-58.33
1118.147	16.67
1118.563	113.33
1118.979	333.33
