Data from JCR0011_WhiteVentral_Reflection_00003.txt Node
Date: Thu Jul 23 13:34:17 ACST 2020
User: Stacey Dix
Spectrometer: MAYP113282
Scans to average: 1
Trigger mode: 0
Integration Time (sec): 1.000000E-1
Electric dark correction enabled: true
Boxcar width: 0
XAxis mode: Wavelengths
Number of Pixels in Spectrum: 2068
>>>>>Begin Spectral Data<<<<<
198.791	-584.37
199.266	-155.88
199.74	-21.87
200.215	-181.25
200.69	67.78
201.164	75.61
201.639	58.94
202.114	68.98
202.588	54.32
203.063	49.91
203.537	54.77
204.012	48.19
204.486	57.27
204.961	47.14
205.435	47.1
205.909	47.77
206.384	53.66
206.858	50.8
207.332	52.43
207.807	50.88
208.281	57.32
208.755	48.39
209.229	52.57
209.703	38.3
210.177	51.38
210.651	58.18
211.126	51.31
211.6	51.71
212.074	44.29
212.548	42.12
213.021	38.37
213.495	37.51
213.969	46.5
214.443	43.2
214.917	41.16
215.391	44.66
215.864	43.17
216.338	39.29
216.812	37.92
217.286	41.7
217.759	38.91
218.233	44.01
218.706	30.55
219.18	38.02
219.654	32.18
220.127	34.25
220.6	26.09
221.074	32.74
221.547	29.62
222.021	34.24
222.494	29.68
222.967	30.14
223.441	29.91
223.914	27.88
224.387	25
224.86	25.17
225.334	26.53
225.807	24.79
226.28	27.52
226.753	28.8
227.226	23.06
227.699	22.54
228.172	24.29
228.645	21.79
229.118	19.88
229.591	22.69
230.064	21.3
230.537	19.55
231.01	20.74
231.482	18.6
231.955	21.99
232.428	18.37
232.901	20.1
233.373	19.22
233.846	17.28
234.319	18.13
234.791	17.64
235.264	16.74
235.736	18.62
236.209	17.52
236.681	16.54
237.154	16.83
237.626	16.74
238.099	17.07
238.571	15.2
239.044	17.33
239.516	15.11
239.988	15.25
240.46	15.86
240.933	15.77
241.405	16.49
241.877	15.88
242.349	16.67
242.821	15.43
243.293	15.05
243.765	15.54
244.237	15.82
244.71	15.28
245.181	15.43
245.653	15.21
246.125	15.27
246.597	14.8
247.069	14.11
247.541	15.08
248.013	14.85
248.485	14.52
248.956	14.03
249.428	14.21
249.9	14.42
250.371	14.16
250.843	14
251.315	13.63
251.786	13.35
252.258	13.66
252.729	13.85
253.201	12.99
253.672	13.83
254.144	12.38
254.615	13.5
255.086	13.04
255.558	13.12
256.029	13.76
256.5	12.97
256.972	12.99
257.443	13.01
257.914	13.45
258.385	13.25
258.856	12.86
259.327	13.51
259.799	12.66
260.27	13.13
260.741	12.84
261.212	13.12
261.683	12.55
262.154	12.67
262.624	13.3
263.095	13.21
263.566	13.08
264.037	13.1
264.508	13.99
264.979	12.91
265.449	13.17
265.92	12.38
266.391	13.41
266.861	12.72
267.332	13.07
267.803	13.39
268.273	12.94
268.744	12.93
269.214	13.76
269.685	12.88
270.155	13.08
270.626	12.98
271.096	12.9
271.566	12.51
272.037	13.27
272.507	13.39
272.977	13.63
273.448	13.1
273.918	13.75
274.388	13.04
274.858	12.83
275.328	12.84
275.798	13.73
276.268	12.26
276.738	13.09
277.208	13.03
277.678	13.74
278.148	13.16
278.618	12.74
279.088	13.66
279.558	12.37
280.028	13.64
280.498	12.04
280.968	12.74
281.437	12.84
281.907	12.51
282.377	12.4
282.847	13.11
283.316	12.51
283.786	12.96
284.255	13.4
284.725	12.3
285.194	12.8
285.664	12.55
286.133	13.2
286.603	12.97
287.072	13.05
287.542	12.77
288.011	13.42
288.48	12.86
288.95	12.71
289.419	12.7
289.888	13.22
290.357	12.88
290.827	13.26
291.296	12.99
291.765	13.06
292.234	13.19
292.703	12.85
293.172	13.5
293.641	12.5
294.11	12.3
294.579	12.76
295.048	13.14
295.517	13.11
295.986	13.6
296.455	13.49
296.923	13.52
297.392	13.58
297.861	13.73
298.33	13.56
298.798	13.67
299.267	13.81
299.736	13.95
300.204	13.45
300.673	14.05
301.141	13.08
301.61	13.93
302.079	13.81
302.547	14.19
303.015	13.41
303.484	13.63
303.952	13.63
304.421	14.08
304.889	13.86
305.357	14.78
305.825	14.68
306.294	14.08
306.762	14.32
307.23	14.64
307.698	14.14
308.166	14.35
308.634	14.29
309.103	14.97
309.571	14.27
310.039	14.53
310.507	14.78
310.975	14.85
311.442	14.99
311.91	14.43
312.378	14.83
312.846	14.53
313.314	15.42
313.782	15.24
314.249	15.51
314.717	16.19
315.185	14.61
315.652	14.93
316.12	15.37
316.588	15.05
317.055	15.24
317.523	15.37
317.99	14.63
318.458	15.6
318.925	15.6
319.393	15.43
319.86	15.15
320.328	15.31
320.795	15.8
321.262	15.78
321.73	16.05
322.197	16.41
322.664	15.88
323.131	16.12
323.598	17.57
324.066	16.84
324.533	17.32
325	17.26
325.467	17.37
325.934	18.16
326.401	18.22
326.868	18.38
327.335	18.39
327.802	19.8
328.269	20.13
328.735	20.43
329.202	21.62
329.669	20.87
330.136	21.77
330.603	22.56
331.069	21.85
331.536	22.89
332.003	23.37
332.469	22.95
332.936	24.23
333.402	23.71
333.869	24.3
334.336	24.8
334.802	24.32
335.268	24.71
335.735	25.14
336.201	25.83
336.668	25.04
337.134	26.41
337.6	25.28
338.067	24.69
338.533	24.67
338.999	25.73
339.465	25.12
339.931	25.98
340.398	26.24
340.864	26.24
341.33	24.94
341.796	25.17
342.262	25.59
342.728	26.29
343.194	26.17
343.66	26.79
344.126	25.92
344.592	26.36
345.057	26.41
345.523	25.16
345.989	26.4
346.455	25.41
346.921	26.35
347.386	25.97
347.852	26.22
348.318	25.66
348.783	25.48
349.249	25.56
349.714	26.08
350.18	25.57
350.645	26.58
351.111	25.71
351.576	26.13
352.042	25.44
352.507	26.53
352.973	26.41
353.438	26.5
353.903	26.43
354.369	25.58
354.834	25.58
355.299	25.85
355.764	25.8
356.229	26.03
356.695	25.66
357.16	26.14
357.625	25.51
358.09	25.99
358.555	26.1
359.02	26.43
359.485	25.52
359.95	26.43
360.415	25.42
360.879	26.59
361.344	26.47
361.809	25.5
362.274	25.91
362.739	26.24
363.203	26.7
363.668	26.76
364.133	25.75
364.597	25.91
365.062	26.46
365.527	26.99
365.991	26.71
366.456	25.89
366.92	27.12
367.385	26.99
367.849	27.35
368.314	27.18
368.778	27.2
369.242	25.94
369.707	26.35
370.171	26.82
370.635	26.99
371.1	26.9
371.564	26.5
372.028	27.93
372.492	25.83
372.956	26.68
373.42	27.25
373.884	26.4
374.348	26.45
374.812	27.3
375.276	27.27
375.74	27.33
376.204	27.66
376.668	27.33
377.132	27.46
377.596	26.97
378.06	26.88
378.524	27.15
378.987	28.72
379.451	26.91
379.915	28.07
380.378	27.84
380.842	27.8
381.306	27.85
381.769	27.25
382.233	28.75
382.696	27.44
383.16	29.06
383.623	27.72
384.087	28.86
384.55	28.44
385.014	27.66
385.477	27.81
385.94	27.88
386.404	29.23
386.867	27.5
387.33	27.99
387.793	28.24
388.256	29.69
388.72	28.45
389.183	27.84
389.646	28.56
390.109	29.18
390.572	29.07
391.035	28.27
391.498	28.72
391.961	28.45
392.424	28.72
392.887	28.64
393.35	29.13
393.812	28.72
394.275	29.02
394.738	28.87
395.201	28.15
395.664	29.45
396.126	28.43
396.589	28.79
397.052	27.83
397.514	29.24
397.977	28.97
398.439	29.42
398.902	29.12
399.364	28.32
399.827	29.57
400.289	29.17
400.752	28.16
401.214	29.33
401.676	28.79
402.139	29.29
402.601	29.58
403.063	29.33
403.525	28.21
403.988	28.99
404.45	29.53
404.912	28.64
405.374	28.55
405.836	29.16
406.298	28.07
406.76	28.24
407.222	29.26
407.684	28.69
408.146	29.17
408.608	28.72
409.07	29.67
409.532	28.73
409.994	28.81
410.456	30.03
410.917	29.41
411.379	29.74
411.841	28.44
412.303	29.03
412.764	29.64
413.226	28.78
413.687	29.6
414.149	29.78
414.611	29.1
415.072	29.1
415.534	30.62
415.995	29.95
416.457	28.62
416.918	29.69
417.379	29.27
417.841	29.96
418.302	29.01
418.763	29.93
419.225	30.52
419.686	29.85
420.147	30.08
420.608	30.69
421.069	29.88
421.53	29.63
421.991	30.65
422.453	30.42
422.914	29.61
423.375	30.62
423.836	30.82
424.297	30.3
424.757	30.25
425.218	30.99
425.679	30.84
426.14	30.01
426.601	31.1
427.062	30.69
427.522	30.66
427.983	31.08
428.444	30.62
428.904	32.02
429.365	31.19
429.826	32.08
430.286	31
430.747	31.24
431.207	30.99
431.668	31.17
432.128	30.64
432.589	31.57
433.049	31.14
433.509	31.16
433.97	30.2
434.43	30.83
434.89	30.4
435.351	30.85
435.811	31.76
436.271	30.84
436.731	30.11
437.191	31.42
437.651	31.39
438.112	31.52
438.572	32.27
439.032	30.07
439.492	31.23
439.952	30.85
440.412	32.12
440.871	31.74
441.331	30.61
441.791	31.82
442.251	30.91
442.711	30.85
443.171	30.89
443.63	31.34
444.09	31.2
444.55	30.94
445.009	30.64
445.469	31.04
445.929	30.95
446.388	32.48
446.848	32.51
447.307	30.93
447.767	32.12
448.226	30.92
448.686	30.58
449.145	31.57
449.604	31.25
450.064	32.3
450.523	31.65
450.982	32.55
451.442	31.57
451.901	31.92
452.36	31.92
452.819	32.08
453.278	31.56
453.737	32.02
454.197	31.94
454.656	32.16
455.115	32.66
455.574	31.46
456.033	32.7
456.492	32.01
456.95	32.7
457.409	32.44
457.868	31.29
458.327	33.5
458.786	33.54
459.245	32.29
459.703	32.26
460.162	33.06
460.621	32.31
461.079	32.75
461.538	32.92
461.997	33.06
462.455	32.71
462.914	34.24
463.372	32.94
463.831	32.32
464.289	32.88
464.748	33.24
465.206	33.04
465.664	33.39
466.123	33.78
466.581	32.77
467.039	33.81
467.497	33.73
467.956	32.46
468.414	33.61
468.872	34.55
469.33	33.22
469.788	33.61
470.246	33.92
470.704	33.99
471.162	33.35
471.62	33.49
472.078	32.83
472.536	33.96
472.994	33.54
473.452	33.31
473.91	33.91
474.368	33.97
474.826	33.77
475.283	33.36
475.741	34.31
476.199	35.16
476.656	34.44
477.114	32.44
477.572	34.29
478.029	34.78
478.487	34.32
478.944	34.52
479.402	34.24
479.859	33.67
480.317	34.58
480.774	32.93
481.232	33.92
481.689	33.33
482.146	34.07
482.604	34.5
483.061	34.25
483.518	32.45
483.975	33.71
484.433	35
484.89	35.06
485.347	34.83
485.804	33.6
486.261	34.07
486.718	34.39
487.175	34.59
487.632	33.29
488.089	35.38
488.546	34.51
489.003	34.42
489.46	35.13
489.917	34.67
490.373	34.38
490.83	34.31
491.287	35.1
491.744	35.88
492.2	35.12
492.657	34.54
493.114	35.11
493.57	33.27
494.027	35.8
494.484	36.16
494.94	34
495.397	36.73
495.853	34.18
496.31	32.8
496.766	34.71
497.222	35.01
497.679	34.83
498.135	34.5
498.591	35.54
499.048	35.82
499.504	33.89
499.96	34.87
500.416	33.64
500.872	34.85
501.329	36.05
501.785	35.46
502.241	33.27
502.697	35.33
503.153	34.77
503.609	36.62
504.065	35.68
504.521	34.67
504.977	35.26
505.432	34.41
505.888	36.45
506.344	35.18
506.8	35.14
507.256	34.83
507.711	36.05
508.167	33.97
508.623	35.72
509.078	34.76
509.534	35.3
509.99	34.94
510.445	33.32
510.901	34.16
511.356	34.07
511.812	34.5
512.267	34.48
512.722	34.87
513.178	34.32
513.633	34.57
514.089	35.98
514.544	35.43
514.999	35.22
515.454	33.79
515.91	34.47
516.365	35.26
516.82	34.71
517.275	35.05
517.73	33.75
518.185	34.58
518.64	34.98
519.095	34.64
519.55	33.81
520.005	34.63
520.46	34.87
520.915	35.85
521.37	33.14
521.825	34.9
522.28	33.53
522.734	35.31
523.189	34.91
523.644	34.1
524.099	35.14
524.553	34.38
525.008	34.33
525.462	35.14
525.917	34.86
526.372	34.67
526.826	35.85
527.281	35.63
527.735	35.3
528.19	34.41
528.644	35.76
529.098	34.45
529.553	35.56
530.007	35.21
530.461	34.94
530.916	35.07
531.37	34.72
531.824	35.35
532.278	34.95
532.732	36.19
533.186	35.6
533.641	35.97
534.095	35.44
534.549	34.91
535.003	34.74
535.457	34.38
535.911	35.69
536.365	35.01
536.818	35.54
537.272	35.06
537.726	34.98
538.18	36.18
538.634	34.79
539.087	36.31
539.541	35.29
539.995	34.64
540.449	35.34
540.902	35.99
541.356	34.42
541.809	34.87
542.263	34.65
542.716	35.46
543.17	36.2
543.623	36.33
544.077	35.91
544.53	35.68
544.984	36.33
545.437	34.9
545.89	36.02
546.344	35.35
546.797	34.95
547.25	35.19
547.703	34.14
548.157	35.62
548.61	34.81
549.063	35.31
549.516	36.98
549.969	34.98
550.422	35.72
550.875	36
551.328	35.45
551.781	34.56
552.234	36.11
552.687	35.73
553.14	35.22
553.592	35.83
554.045	36.23
554.498	35.17
554.951	35.54
555.404	36.29
555.856	35.36
556.309	36.26
556.762	36.58
557.214	35.79
557.667	35.57
558.119	34.66
558.572	34.96
559.024	35.64
559.477	35.09
559.929	35.11
560.382	35.56
560.834	35.11
561.286	35.15
561.739	35.55
562.191	36.01
562.643	35.87
563.095	35.53
563.548	35.35
564	35.81
564.452	35.6
564.904	36.11
565.356	35.49
565.808	35.03
566.26	35.78
566.712	35.3
567.164	34.9
567.616	35.72
568.068	34.81
568.52	34.82
568.972	35.23
569.424	34.55
569.876	35.94
570.327	35.1
570.779	35.02
571.231	35.12
571.682	36.11
572.134	35.19
572.586	35.57
573.037	35.4
573.489	34.83
573.941	36.03
574.392	34.79
574.844	35.5
575.295	35.36
575.746	36.09
576.198	34.93
576.649	35.02
577.101	35.4
577.552	35.26
578.003	35.5
578.454	34.64
578.906	34.43
579.357	35.13
579.808	35.89
580.259	34.55
580.71	35.17
581.161	35.21
581.612	35.67
582.064	35.49
582.515	34.9
582.965	35.6
583.416	34.63
583.867	35.7
584.318	35.28
584.769	34.77
585.22	34.74
585.671	35.3
586.122	34.96
586.572	35.46
587.023	34.79
587.474	36.61
587.924	35.04
588.375	35.9
588.826	34.91
589.276	36.49
589.727	35.42
590.177	35.97
590.628	35.5
591.078	35.73
591.529	35.75
591.979	35.37
592.429	35.16
592.88	35.15
593.33	35.76
593.78	35.67
594.231	34.82
594.681	34.72
595.131	35.73
595.581	35.8
596.031	35.52
596.481	35.21
596.932	36.65
597.382	35.31
597.832	35.52
598.282	34.69
598.732	35.55
599.182	35.56
599.632	35.51
600.081	35.86
600.531	35.52
600.981	35.52
601.431	35.2
601.881	35.06
602.33	34.97
602.78	35.63
603.23	35.49
603.679	34.98
604.129	34.97
604.579	35.88
605.028	35.49
605.478	35.37
605.927	35.44
606.377	36.09
606.826	36.7
607.276	35.14
607.725	35.22
608.175	34.44
608.624	35.66
609.073	35.69
609.522	36.12
609.972	35.98
610.421	35.11
610.87	34.95
611.319	34.88
611.768	34.8
612.218	35.26
612.667	35.28
613.116	35.39
613.565	36.35
614.014	35.13
614.463	34.98
614.912	35.26
615.361	35.03
615.81	34.84
616.258	36.09
616.707	35.09
617.156	35.48
617.605	35.4
618.054	35.47
618.502	35.27
618.951	35.17
619.4	35.21
619.848	34.8
620.297	34.94
620.745	35.84
621.194	35.06
621.642	36.28
622.091	35.77
622.539	35.54
622.988	35.71
623.436	35.38
623.885	35.55
624.333	35.43
624.781	34.94
625.23	34.71
625.678	35.18
626.126	35.23
626.574	34.98
627.022	34.44
627.471	35.16
627.919	35.82
628.367	34.71
628.815	35.21
629.263	34.65
629.711	34.84
630.159	34.92
630.607	36.48
631.055	35.06
631.503	34.21
631.95	35.49
632.398	35.12
632.846	34.92
633.294	35.05
633.742	34.72
634.189	35.96
634.637	35.03
635.085	35.24
635.532	34.25
635.98	35.17
636.427	34.54
636.875	35.72
637.323	35.4
637.77	36.23
638.217	35.29
638.665	35.09
639.112	34.97
639.56	34.8
640.007	35.6
640.454	35
640.902	34.72
641.349	35.48
641.796	35.7
642.243	34.98
642.69	35.14
643.138	35.8
643.585	35.16
644.032	35.05
644.479	34.65
644.926	35.01
645.373	34.96
645.82	35.56
646.267	35.69
646.714	35.74
647.161	35.05
647.607	35.39
648.054	35.02
648.501	34.94
648.948	35.01
649.395	34.64
649.841	34.81
650.288	35.19
650.735	35.12
651.181	34.34
651.628	35.41
652.075	35.51
652.521	34.45
652.968	35.09
653.414	34.79
653.861	35.46
654.307	34.17
654.753	34.46
655.2	35.43
655.646	34.63
656.092	34.43
656.539	35.05
656.985	35.31
657.431	34.5
657.877	35.1
658.324	34.78
658.77	34.63
659.216	34.35
659.662	35.47
660.108	35.29
660.554	34.78
661	35.35
661.446	35.06
661.892	35.24
662.338	35.38
662.784	34.78
663.23	35.26
663.675	35.32
664.121	35.28
664.567	35.21
665.013	35.18
665.458	34.52
665.904	34.94
666.35	34.47
666.795	35.34
667.241	35.34
667.687	35.55
668.132	35.38
668.578	34.88
669.023	35.19
669.469	34.97
669.914	35.51
670.359	34.85
670.805	34.88
671.25	35.06
671.695	34.31
672.141	35.4
672.586	35.15
673.031	34.65
673.476	35.14
673.922	35.33
674.367	34.14
674.812	34.74
675.257	34.6
675.702	35.33
676.147	35.01
676.592	35.11
677.037	34.88
677.482	34.58
677.927	34.89
678.372	35.17
678.817	34.76
679.261	34.93
679.706	35.06
680.151	34.78
680.596	34.21
681.04	34.74
681.485	34.49
681.93	35.41
682.374	34.9
682.819	35
683.264	35
683.708	34.67
684.153	34.98
684.597	34.73
685.042	35.33
685.486	34.82
685.93	35
686.375	35.07
686.819	34.76
687.263	35.32
687.708	35.3
688.152	35.29
688.596	35.06
689.04	35.09
689.485	35.29
689.929	34.89
690.373	35.19
690.817	34.91
691.261	35.12
691.705	34.29
692.149	34.46
692.593	34.81
693.037	34.92
693.481	35.1
693.925	34.84
694.369	34.7
694.812	34.44
695.256	35.02
695.7	34.68
696.144	34.66
696.587	34.27
697.031	34.3
697.475	35
697.918	34.59
698.362	34.55
698.806	34.47
699.249	34.6
699.693	34.87
700.136	35.01
700.58	34.94
701.023	34.9
701.466	35.06
701.91	35.19
702.353	35.05
702.796	34.93
703.24	35.16
703.683	34.06
704.126	34.93
704.569	35.33
705.013	34.79
705.456	35.14
705.899	34.68
706.342	34.88
706.785	34.01
707.228	34.6
707.671	34.84
708.114	33.82
708.557	34.72
709	34.81
709.443	33.95
709.886	34.68
710.328	34.6
710.771	33.93
711.214	34.59
711.657	34.01
712.099	34.22
712.542	34.61
712.985	34.97
713.427	34.27
713.87	34.64
714.313	34.38
714.755	33.67
715.198	34.48
715.64	34.46
716.083	34.39
716.525	34.65
716.967	34.7
717.41	34.73
717.852	34.56
718.295	34.62
718.737	35.13
719.179	34.68
719.621	34.66
720.063	34.83
720.506	34.43
720.948	34.9
721.39	33.78
721.832	34.57
722.274	34.92
722.716	34.6
723.158	35.13
723.6	34.5
724.042	34.97
724.484	34.41
724.926	34.47
725.368	33.88
725.81	34.33
726.251	34.83
726.693	34.01
727.135	34.57
727.577	35.07
728.018	34.78
728.46	34.62
728.902	34.28
729.343	34.08
729.785	34.35
730.226	34.95
730.668	34.47
731.109	34.63
731.551	35.06
731.992	34.88
732.434	34.45
732.875	34.51
733.316	35.05
733.758	35.18
734.199	34.61
734.64	34.95
735.081	34.55
735.523	34.4
735.964	34.48
736.405	34.47
736.846	34.62
737.287	34.57
737.728	34.54
738.169	34.4
738.61	34.13
739.051	34.72
739.492	34.69
739.933	34.28
740.374	34.62
740.815	34.2
741.256	34.57
741.696	33.88
742.137	34.23
742.578	34.55
743.019	33.97
743.459	34.31
743.9	34.37
744.341	34.35
744.781	33.84
745.222	34.17
745.662	34.26
746.103	34.23
746.543	34.22
746.984	34.54
747.424	33.93
747.865	33.67
748.305	33.32
748.745	34.09
749.186	34.41
749.626	34.32
750.066	34.21
750.506	34.59
750.947	34.09
751.387	34.5
751.827	34.22
752.267	34.35
752.707	34.45
753.147	34.26
753.587	33.98
754.027	34.87
754.467	34.83
754.907	34.88
755.347	33.8
755.787	34.52
756.227	34.59
756.667	34.44
757.107	34.49
757.546	34.41
757.986	34.27
758.426	33.98
758.865	34.01
759.305	33.99
759.745	33.88
760.184	33.87
760.624	34.1
761.063	33.97
761.503	34.65
761.943	34.72
762.382	34.24
762.821	34.28
763.261	33.79
763.7	34.43
764.14	33.94
764.579	34.45
765.018	33.99
765.457	34.94
765.897	33.97
766.336	34.03
766.775	34.09
767.214	34.01
767.653	34.23
768.092	34.12
768.531	34.23
768.97	34.91
769.409	34.53
769.848	34.55
770.287	34.42
770.726	34.4
771.165	34.46
771.604	34.3
772.043	34.23
772.482	34.19
772.92	34.77
773.359	34.93
773.798	34.38
774.237	33.98
774.675	34.44
775.114	34.7
775.553	34.72
775.991	33.89
776.43	34.13
776.868	33.82
777.307	34.33
777.745	33.96
778.184	34.27
778.622	34.07
779.06	34.04
779.499	33.66
779.937	34.27
780.375	33.93
780.814	33.83
781.252	33.46
781.69	33.67
782.128	33.95
782.566	33.16
783.004	34.04
783.443	33.58
783.881	33.69
784.319	33.93
784.757	33.52
785.195	34.07
785.633	33.57
786.071	33.98
786.508	33.78
786.946	34.07
787.384	33.61
787.822	34.47
788.26	33.62
788.697	34.15
789.135	34.27
789.573	33.5
790.011	34.14
790.448	33.59
790.886	33.91
791.323	33.98
791.761	33.86
792.198	34.18
792.636	34.15
793.073	33.77
793.511	34.39
793.948	34.47
794.386	34.37
794.823	34.38
795.26	34.02
795.698	34.38
796.135	34.28
796.572	33.9
797.009	34.32
797.446	34.06
797.884	33.99
798.321	33.98
798.758	34.3
799.195	34.11
799.632	34.34
800.069	34.5
800.506	33.68
800.943	34.28
801.38	34.17
801.817	33.68
802.254	33.93
802.69	34.21
803.127	33.79
803.564	33.87
804.001	33.3
804.438	33.68
804.874	33.4
805.311	33.84
805.748	33.39
806.184	33.13
806.621	33.68
807.057	33.89
807.494	33.96
807.93	33.45
808.367	33.76
808.803	33.86
809.24	33.47
809.676	33.75
810.112	33.56
810.549	33.24
810.985	34.11
811.421	34.1
811.857	33.93
812.294	33.52
812.73	33.83
813.166	34.1
813.602	33.6
814.038	34.43
814.474	33.55
814.91	33.99
815.346	33.98
815.782	33.76
816.218	34.13
816.654	33.9
817.09	33.89
817.526	33.55
817.962	33.73
818.398	34.22
818.833	34.25
819.269	34.21
819.705	33.9
820.141	33.64
820.576	33.99
821.012	33.75
821.447	34.15
821.883	33.64
822.319	33.47
822.754	33.65
823.19	33.72
823.625	33.58
824.061	33.63
824.496	33.75
824.931	33.23
825.367	33.6
825.802	34.12
826.237	33.77
826.673	33.31
827.108	33.96
827.543	33.74
827.978	33.55
828.413	33.26
828.849	33.37
829.284	33.36
829.719	33.51
830.154	34.11
830.589	33.86
831.024	33.55
831.459	33.66
831.894	33.9
832.329	33.86
832.763	33.7
833.198	33.89
833.633	33.52
834.068	34.06
834.503	33.96
834.937	33.7
835.372	33.99
835.807	33.83
836.241	33.64
836.676	34.09
837.111	34.08
837.545	33.54
837.98	33.4
838.414	34.05
838.849	33.74
839.283	33.97
839.717	33.66
840.152	34.05
840.586	34.07
841.021	33.81
841.455	33.91
841.889	33.62
842.323	33.92
842.758	33.12
843.192	33.55
843.626	33.94
844.06	33.06
844.494	33.55
844.928	33.49
845.362	33.28
845.796	33.57
846.23	33.54
846.664	33.36
847.098	33.44
847.532	33.61
847.966	33.28
848.4	33.27
848.834	33.98
849.267	33.07
849.701	33.51
850.135	33.01
850.569	33.2
851.002	33.44
851.436	33.22
851.87	32.91
852.303	33.15
852.737	32.68
853.17	32.96
853.604	33.52
854.037	33.03
854.471	33.07
854.904	33.45
855.337	33.44
855.771	33.26
856.204	33.21
856.637	33.58
857.071	33.1
857.504	33.5
857.937	33.37
858.37	33.25
858.804	33.33
859.237	33.59
859.67	33.72
860.103	33.61
860.536	33.47
860.969	33.56
861.402	33.05
861.835	33.06
862.268	33.56
862.701	33.29
863.134	33.51
863.566	32.92
863.999	33.55
864.432	33.52
864.865	33.15
865.298	33.67
865.73	33.43
866.163	33.76
866.596	33.41
867.028	33.46
867.461	33.5
867.893	33.57
868.326	33.66
868.758	33.74
869.191	33.42
869.623	33.54
870.056	33.53
870.488	33.63
870.92	33.55
871.353	33.26
871.785	33.34
872.217	33.38
872.65	33.21
873.082	33.2
873.514	33.42
873.946	33.22
874.378	33.55
874.81	32.99
875.243	33.02
875.675	32.94
876.107	33.12
876.539	33.54
876.971	33.2
877.403	33.14
877.834	32.79
878.266	33.02
878.698	32.8
879.13	33.13
879.562	33.32
879.994	32.93
880.425	33.34
880.857	33.38
881.289	33.5
881.72	33.15
882.152	33.24
882.584	33.53
883.015	33.1
883.447	32.94
883.878	33.23
884.31	33.35
884.741	33.25
885.173	33.53
885.604	33.44
886.035	33.36
886.467	33.32
886.898	33.51
887.329	33.67
887.76	33.55
888.192	33.56
888.623	33.5
889.054	33.32
889.485	33.55
889.916	33.01
890.347	33.36
890.778	33.79
891.209	33.25
891.64	33.37
892.071	33.76
892.502	32.98
892.933	33.03
893.364	33.27
893.795	32.97
894.226	33.23
894.657	33.08
895.087	33.33
895.518	33.17
895.949	33.05
896.38	33.4
896.81	33
897.241	33
897.671	33.26
898.102	33.1
898.533	33.1
898.963	32.9
899.394	33.09
899.824	33.1
900.254	33.14
900.685	32.72
901.115	33.28
901.546	32.99
901.976	32.91
902.406	32.72
902.836	33.35
903.267	32.99
903.697	33.24
904.127	33.01
904.557	32.86
904.987	32.86
905.417	33.38
905.847	33.11
906.277	32.85
906.707	33
907.137	32.89
907.567	32.7
907.997	33.33
908.427	33.27
908.857	33.11
909.287	33.16
909.717	33.25
910.146	33.63
910.576	33.35
911.006	33.12
911.436	33.21
911.865	33.09
912.295	33.06
912.724	33.38
913.154	33.13
913.584	33.4
914.013	33.34
914.443	33.27
914.872	33.36
915.302	33.27
915.731	33.4
916.16	33.59
916.59	33.73
917.019	33.34
917.448	33.42
917.878	33.22
918.307	33.48
918.736	33.22
919.165	33.19
919.594	33.43
920.023	33.18
920.452	33.3
920.882	33.42
921.311	33.01
921.74	33.18
922.169	33.49
922.597	32.99
923.026	33.25
923.455	33.3
923.884	32.85
924.313	32.96
924.742	32.88
925.171	32.97
925.599	32.85
926.028	32.85
926.457	32.86
926.885	32.95
927.314	32.77
927.743	33.19
928.171	32.59
928.6	32.99
929.028	33.07
929.457	33.03
929.885	32.93
930.314	32.67
930.742	32.79
931.17	32.55
931.599	32.73
932.027	32.73
932.455	32.31
932.884	32.63
933.312	32.48
933.74	32.63
934.168	32.63
934.596	32.32
935.025	32.35
935.453	32.26
935.881	32.43
936.309	31.85
936.737	32.22
937.165	31.79
937.593	31.65
938.021	32.37
938.449	32.25
938.876	32.43
939.304	32.19
939.732	32.5
940.16	32.03
940.588	32.48
941.015	32.48
941.443	32.43
941.871	32.73
942.298	32.61
942.726	32.69
943.154	32.56
943.581	33
944.009	33.05
944.436	32.77
944.864	33.07
945.291	33.52
945.718	32.96
946.146	32.79
946.573	33.05
947.001	32.78
947.428	32.92
947.855	32.89
948.282	32.66
948.71	32.9
949.137	32.58
949.564	33.23
949.991	33.15
950.418	32.97
950.845	32.69
951.272	33.31
951.699	32.85
952.126	32.94
952.553	33.28
952.98	32.83
953.407	32.75
953.834	32.97
954.261	32.9
954.688	32.98
955.114	32.96
955.541	33.09
955.968	33.01
956.395	32.88
956.821	32.86
957.248	32.82
957.674	32.84
958.101	33.25
958.528	33.18
958.954	32.95
959.381	32.68
959.807	33.02
960.234	32.7
960.66	33.14
961.086	33.02
961.513	33.02
961.939	32.78
962.365	32.97
962.792	32.65
963.218	32.79
963.644	32.8
964.07	32.53
964.496	32.59
964.923	32.92
965.349	32.84
965.775	33
966.201	32.76
966.627	32.86
967.053	32.96
967.479	32.75
967.905	32.73
968.331	33.03
968.756	32.75
969.182	32.51
969.608	32.81
970.034	33.05
970.46	32.94
970.885	32.75
971.311	32.73
971.737	32.62
972.162	32.6
972.588	32.63
973.014	32.7
973.439	33.08
973.865	32.82
974.29	32.84
974.716	33.14
975.141	32.82
975.567	32.86
975.992	32.9
976.417	33.27
976.843	33.29
977.268	33.28
977.693	33.83
978.119	33.72
978.544	33.69
978.969	34.12
979.394	33.99
979.819	33.74
980.244	33.78
980.669	33.84
981.095	33.77
981.52	33.79
981.945	33.84
982.369	33.77
982.794	33.6
983.219	33.61
983.644	33.34
984.069	33.24
984.494	33.13
984.919	32.91
985.343	32.87
985.768	32.39
986.193	32.56
986.618	32.73
987.042	32.79
987.467	32.55
987.891	32.46
988.316	32.69
988.741	32.87
989.165	33.18
989.59	33.18
990.014	32.87
990.438	33.21
990.863	33.38
991.287	33.12
991.712	33.25
992.136	32.79
992.56	33.12
992.984	33.01
993.409	33.16
993.833	33.11
994.257	33.02
994.681	32.96
995.105	32.82
995.529	32.83
995.953	32.73
996.377	32.76
996.801	32.7
997.225	32.87
997.649	32.72
998.073	32.88
998.497	33.08
998.921	32.68
999.345	32.81
999.769	32.74
1000.192	32.84
1000.616	32.68
1001.04	32.72
1001.464	32.73
1001.887	32.74
1002.311	32.79
1002.734	32.77
1003.158	32.64
1003.582	32.35
1004.005	32.44
1004.429	32.47
1004.852	32.45
1005.275	32.51
1005.699	32.36
1006.122	32.38
1006.546	32.18
1006.969	32.3
1007.392	32.15
1007.815	32.58
1008.239	32.47
1008.662	32.39
1009.085	32.41
1009.508	32.6
1009.931	32.15
1010.354	32.53
1010.778	32.34
1011.201	32.34
1011.624	32.41
1012.047	32.28
1012.469	32.74
1012.892	32.43
1013.315	32.23
1013.738	32.58
1014.161	32.97
1014.584	32.74
1015.007	32.77
1015.429	32.67
1015.852	32.69
1016.275	32.87
1016.697	32.54
1017.12	32.57
1017.543	32.77
1017.965	32.38
1018.388	32.63
1018.81	32.72
1019.233	32.6
1019.655	32.59
1020.078	32.93
1020.5	32.57
1020.922	32.65
1021.345	32.71
1021.767	32.51
1022.189	32.82
1022.612	32.56
1023.034	32.24
1023.456	33.04
1023.878	32.64
1024.301	32.84
1024.723	32.8
1025.145	32.94
1025.567	32.68
1025.989	32.93
1026.411	32.77
1026.833	32.79
1027.255	32.92
1027.677	32.6
1028.099	32.82
1028.52	32.53
1028.942	32.74
1029.364	33
1029.786	32.63
1030.208	32.81
1030.629	32.57
1031.051	32.68
1031.473	32.82
1031.894	32.99
1032.316	32.83
1032.738	32.78
1033.159	32.66
1033.581	32.46
1034.002	33.17
1034.424	32.67
1034.845	33.35
1035.267	32.73
1035.688	32.86
1036.109	32.95
1036.531	33.14
1036.952	32.41
1037.373	32.98
1037.794	32.79
1038.216	33.3
1038.637	32.71
1039.058	32.96
1039.479	33.27
1039.9	32.87
1040.321	33.07
1040.742	32.94
1041.163	32.93
1041.584	32.95
1042.005	32.87
1042.426	32.93
1042.847	33.1
1043.268	33.02
1043.689	32.61
1044.11	33.06
1044.53	32.78
1044.951	32.3
1045.372	32.33
1045.793	33.25
1046.213	32.76
1046.634	32.72
1047.055	32.91
1047.475	33.43
1047.896	32.9
1048.316	32.78
1048.737	33.15
1049.157	32.85
1049.578	32.82
1049.998	32.9
1050.419	32.93
1050.839	33.07
1051.259	32.41
1051.68	32.97
1052.1	32.77
1052.52	32.6
1052.94	32.82
1053.361	33.19
1053.781	32.9
1054.201	32.84
1054.621	32.99
1055.041	32.73
1055.461	33.12
1055.881	33.03
1056.301	32.95
1056.721	32.9
1057.141	33.09
1057.561	32.93
1057.981	33.21
1058.401	32.97
1058.82	33.14
1059.24	32.95
1059.66	32.79
1060.08	33.45
1060.499	33.89
1060.919	32.38
1061.339	32.33
1061.758	33.39
1062.178	33.2
1062.598	32.86
1063.017	32.7
1063.437	32.56
1063.856	32.88
1064.276	32.21
1064.695	32.66
1065.114	32.61
1065.534	32.29
1065.953	32.89
1066.372	32.58
1066.792	32.88
1067.211	32.55
1067.63	33.03
1068.049	32.91
1068.469	33.39
1068.888	32.75
1069.307	32.72
1069.726	33.12
1070.145	33.12
1070.564	33.09
1070.983	33.18
1071.402	33.6
1071.821	32.52
1072.24	32.9
1072.659	32.77
1073.078	33.08
1073.496	32.56
1073.915	33.08
1074.334	33.16
1074.753	33.48
1075.171	33.05
1075.59	32.69
1076.009	32.79
1076.427	33.18
1076.846	32.98
1077.265	32.89
1077.683	32.29
1078.102	32.39
1078.52	32.2
1078.939	33.36
1079.357	32.35
1079.776	32.67
1080.194	33.48
1080.612	33.25
1081.031	33.56
1081.449	33.05
1081.867	33.45
1082.285	32.92
1082.704	32.61
1083.122	32.87
1083.54	32.84
1083.958	32.87
1084.376	33
1084.794	33.38
1085.212	33.16
1085.63	32.46
1086.048	32.88
1086.466	33.24
1086.884	33.01
1087.302	33.05
1087.72	32.66
1088.138	32.6
1088.555	32.7
1088.973	34.1
1089.391	32.91
1089.809	32.31
1090.226	33.71
1090.644	34.4
1091.062	32.93
1091.479	33
1091.897	32.85
1092.314	32.53
1092.732	33.37
1093.15	33.54
1093.567	33.11
1093.984	32.85
1094.402	32.62
1094.819	33.17
1095.237	33.12
1095.654	34.12
1096.071	33.44
1096.488	33.47
1096.906	33.81
1097.323	33.79
1097.74	33.28
1098.157	32.83
1098.574	33.55
1098.991	32.17
1099.409	33.18
1099.826	33.88
1100.243	33.97
1100.66	33.81
1101.077	32.89
1101.494	34.35
1101.91	32.23
1102.327	32.35
1102.744	32.55
1103.161	33.16
1103.578	33.28
1103.994	33.62
1104.411	32.4
1104.828	32.98
1105.245	34.06
1105.661	33.02
1106.078	32.87
1106.494	33.81
1106.911	34.39
1107.328	34.59
1107.744	33.33
1108.161	32.85
1108.577	33.6
1108.993	32.95
1109.41	31.62
1109.826	32.54
1110.242	33.18
1110.659	33.32
1111.075	33.5
1111.491	33.09
1111.908	31.43
1112.324	34
1112.74	42.24
1113.156	32.27
1113.572	33.95
1113.988	32.23
1114.404	32.55
1114.82	33.66
1115.236	32.67
1115.652	32.91
1116.068	32.27
1116.484	31.31
1116.9	34.71
1117.316	34.58
1117.732	15.45
1118.147	37
1118.563	-60.71
1118.979	-950
