Data from JCR0003_YellowVentral_Reflection_00003.txt Node
Date: Wed Jul 22 12:21:14 ACST 2020
User: Stacey Dix
Spectrometer: MAYP113282
Scans to average: 1
Trigger mode: 0
Integration Time (sec): 1.000000E-1
Electric dark correction enabled: true
Boxcar width: 0
XAxis mode: Wavelengths
Number of Pixels in Spectrum: 2068
>>>>>Begin Spectral Data<<<<<
198.791	-900
199.266	-60
199.74	-900
200.215	-225
200.69	407.55
201.164	161.25
201.639	157.89
202.114	156.52
202.588	171.91
203.063	171.76
203.537	175.32
204.012	162.86
204.486	148.03
204.961	116.77
205.435	122.01
205.909	122.82
206.384	211.2
206.858	193.27
207.332	137.06
207.807	100.59
208.281	135
208.755	184.03
209.229	115.64
209.703	104.79
210.177	152.9
210.651	139.77
211.126	191.6
211.6	132.09
212.074	126.32
212.548	105.59
213.021	134.43
213.495	171.76
213.969	165.84
214.443	136.57
214.917	210.28
215.391	123.53
215.864	135.27
216.338	119.42
216.812	138.58
217.286	115.38
217.759	146.7
218.233	140.93
218.706	144.3
219.18	132.32
219.654	139.81
220.127	112.93
220.6	106.37
221.074	88.97
221.547	98.28
222.021	136.88
222.494	98.12
222.967	102.88
223.441	98.57
223.914	133.45
224.387	103.48
224.86	97.26
225.334	122.84
225.807	104.49
226.28	103.89
226.753	110.18
227.226	98.99
227.699	101.48
228.172	98.58
228.645	89.38
229.118	81.86
229.591	84.09
230.064	94.81
230.537	76.06
231.01	87.22
231.482	81.03
231.955	73.89
232.428	80.31
232.901	78.65
233.373	82.94
233.846	71.49
234.319	76.69
234.791	73.58
235.264	80.58
235.736	73.09
236.209	77.33
236.681	71.04
237.154	70.05
237.626	61.74
238.099	70.46
238.571	61.98
239.044	66.14
239.516	66
239.988	71.27
240.46	67.51
240.933	69.2
241.405	65.51
241.877	67.42
242.349	62.15
242.821	67.32
243.293	67.62
243.765	58.96
244.237	68.35
244.71	63.95
245.181	67.31
245.653	67.79
246.125	68.18
246.597	65.32
247.069	66.32
247.541	56.87
248.013	65.1
248.485	63.02
248.956	57.77
249.428	54.45
249.9	53.19
250.371	56.85
250.843	54.53
251.315	55.22
251.786	54.42
252.258	53.61
252.729	51.98
253.201	54.61
253.672	50.61
254.144	52.96
254.615	54.49
255.086	53.91
255.558	55.36
256.029	56.17
256.5	56.81
256.972	56.3
257.443	55.68
257.914	53.89
258.385	57.84
258.856	53.11
259.327	56.39
259.799	52.7
260.27	56.24
260.741	56.02
261.212	51.08
261.683	56.35
262.154	55.4
262.624	50.33
263.095	53.29
263.566	54.61
264.037	52.37
264.508	52.97
264.979	56.71
265.449	54.72
265.92	55
266.391	56.75
266.861	52.59
267.332	56.36
267.803	55.36
268.273	54.95
268.744	56.06
269.214	57.12
269.685	55.18
270.155	52.38
270.626	55.31
271.096	55.99
271.566	56.9
272.037	51.47
272.507	54.78
272.977	55.83
273.448	53.16
273.918	54.38
274.388	54.16
274.858	54.69
275.328	53.09
275.798	57.1
276.268	54.15
276.738	56.33
277.208	53.43
277.678	52.74
278.148	54.98
278.618	50.39
279.088	54.19
279.558	54.42
280.028	55.09
280.498	57.12
280.968	55.08
281.437	56.01
281.907	50.36
282.377	51.1
282.847	52.62
283.316	52.31
283.786	52.78
284.255	52.41
284.725	53.23
285.194	54.64
285.664	49.97
286.133	55.65
286.603	53.77
287.072	54.94
287.542	55.56
288.011	53.55
288.48	49.01
288.95	54.44
289.419	54.72
289.888	53.48
290.357	53.66
290.827	51.54
291.296	54.55
291.765	53.6
292.234	52.11
292.703	54.75
293.172	52.63
293.641	53.15
294.11	56.14
294.579	55.77
295.048	52.85
295.517	55.74
295.986	51.66
296.455	52.15
296.923	55.34
297.392	57.3
297.861	53.68
298.33	51.24
298.798	56.27
299.267	58.1
299.736	55.41
300.204	58.01
300.673	55.72
301.141	57.49
301.61	54.16
302.079	54.54
302.547	52.82
303.015	52.38
303.484	50.5
303.952	55.12
304.421	53.12
304.889	52.09
305.357	52.68
305.825	56.69
306.294	52.36
306.762	51.49
307.23	56.54
307.698	58.28
308.166	53.83
308.634	54.66
309.103	57.41
309.571	54.47
310.039	53.22
310.507	55.68
310.975	51.19
311.442	52.59
311.91	55.19
312.378	56.43
312.846	56.74
313.314	53.77
313.782	54.02
314.249	53.32
314.717	58.05
315.185	52.14
315.652	54.22
316.12	60.5
316.588	49.67
317.055	59.8
317.523	54.47
317.99	56.84
318.458	53.17
318.925	54.02
319.393	53.86
319.86	52.38
320.328	55.93
320.795	55.9
321.262	54.55
321.73	54.37
322.197	54.87
322.664	51.08
323.131	54.34
323.598	54.78
324.066	54.54
324.533	54.05
325	55.19
325.467	55.39
325.934	55.38
326.401	57.03
326.868	54.44
327.335	54.38
327.802	56.22
328.269	54.62
328.735	56.93
329.202	55.67
329.669	55.02
330.136	56.37
330.603	56.33
331.069	56.73
331.536	57.02
332.003	53.26
332.469	57.47
332.936	60.45
333.402	58.4
333.869	56.98
334.336	55.45
334.802	57.25
335.268	55.2
335.735	57.86
336.201	56.14
336.668	60.37
337.134	60.32
337.6	56.85
338.067	58.18
338.533	52.83
338.999	54.37
339.465	55.22
339.931	55.52
340.398	54.6
340.864	57.94
341.33	53.3
341.796	54.94
342.262	56.06
342.728	54.16
343.194	56.51
343.66	52.49
344.126	53.12
344.592	55.67
345.057	53.69
345.523	54.8
345.989	52.32
346.455	57.11
346.921	50.73
347.386	53.39
347.852	55.02
348.318	53.37
348.783	54.43
349.249	54.17
349.714	51.44
350.18	52.07
350.645	53.39
351.111	50.14
351.576	51.71
352.042	51.36
352.507	54.56
352.973	57.26
353.438	52.37
353.903	52.9
354.369	54
354.834	48.87
355.299	50.52
355.764	50.22
356.229	52.33
356.695	48.89
357.16	51.64
357.625	48.81
358.09	52.4
358.555	50.53
359.02	53.84
359.485	48.92
359.95	50.1
360.415	51.41
360.879	49.71
361.344	48.55
361.809	50.97
362.274	52.04
362.739	51.19
363.203	48.35
363.668	50.8
364.133	47.28
364.597	47.57
365.062	47.21
365.527	48.97
365.991	45.9
366.456	47.1
366.92	47.5
367.385	47.41
367.849	49.12
368.314	45.01
368.778	45.94
369.242	50.78
369.707	45.99
370.171	45.14
370.635	49.38
371.1	46.6
371.564	46.51
372.028	46.96
372.492	47.97
372.956	48.1
373.42	44.53
373.884	40.9
374.348	49.21
374.812	46.5
375.276	46.64
375.74	44.26
376.204	48.93
376.668	43.38
377.132	45.54
377.596	43.26
378.06	42.86
378.524	45.76
378.987	47.34
379.451	47.07
379.915	44.07
380.378	41.84
380.842	44.15
381.306	46.62
381.769	46.66
382.233	45.16
382.696	43.71
383.16	42.37
383.623	45.71
384.087	43.75
384.55	43.76
385.014	43.6
385.477	42.86
385.94	43.84
386.404	44.38
386.867	44.47
387.33	42.66
387.793	43.09
388.256	44.73
388.72	42.35
389.183	42.05
389.646	43.69
390.109	41.4
390.572	42.76
391.035	43.06
391.498	42.87
391.961	42.63
392.424	41.92
392.887	44.61
393.35	41.35
393.812	42.12
394.275	40.78
394.738	40.79
395.201	43.4
395.664	41.66
396.126	42.79
396.589	44.01
397.052	42.11
397.514	42.38
397.977	43.19
398.439	42.38
398.902	41.45
399.364	42.7
399.827	41.08
400.289	43.62
400.752	43.34
401.214	40.83
401.676	40.69
402.139	42.27
402.601	40.72
403.063	41.7
403.525	41.55
403.988	42.28
404.45	39.93
404.912	41.65
405.374	41.17
405.836	43.18
406.298	39.33
406.76	41.13
407.222	41.55
407.684	39.46
408.146	39.55
408.608	37.66
409.07	39.22
409.532	39.65
409.994	39.32
410.456	42.31
410.917	39.25
411.379	41.28
411.841	39.84
412.303	41.68
412.764	39.39
413.226	41.71
413.687	40.91
414.149	39.46
414.611	38.58
415.072	38.45
415.534	40.22
415.995	42.28
416.457	39.45
416.918	37.86
417.379	37.77
417.841	39.93
418.302	41.68
418.763	39.65
419.225	40.29
419.686	38.31
420.147	36.57
420.608	39.24
421.069	38.23
421.53	38.3
421.991	40.25
422.453	39.45
422.914	36.29
423.375	38.2
423.836	39.25
424.297	41.81
424.757	38.45
425.218	39.14
425.679	39.37
426.14	42.8
426.601	38.52
427.062	39.74
427.522	38.94
427.983	37.34
428.444	39.79
428.904	39.72
429.365	37.57
429.826	41.77
430.286	39.66
430.747	40.23
431.207	42.34
431.668	38.28
432.128	40.54
432.589	36.71
433.049	37.17
433.509	35.08
433.97	40.4
434.43	34.79
434.89	37.69
435.351	36.74
435.811	38.68
436.271	37.3
436.731	39.03
437.191	36.68
437.651	34.59
438.112	37.72
438.572	35.58
439.032	33.17
439.492	37.41
439.952	34.64
440.412	37
440.871	37.54
441.331	35.63
441.791	38.56
442.251	37.64
442.711	34.56
443.171	34.11
443.63	33.65
444.09	35.6
444.55	38.29
445.009	37.93
445.469	31.74
445.929	36.96
446.388	36.82
446.848	37.18
447.307	38.64
447.767	35.46
448.226	33.14
448.686	34.6
449.145	35.61
449.604	35.25
450.064	36.52
450.523	34.42
450.982	34.77
451.442	37.56
451.901	34.11
452.36	39.05
452.819	36.29
453.278	35.31
453.737	37.56
454.197	33.24
454.656	34.4
455.115	41.79
455.574	36.97
456.033	37.44
456.492	38.53
456.95	36.87
457.409	38.27
457.868	37.45
458.327	37.88
458.786	38.29
459.245	37.81
459.703	34.54
460.162	36.56
460.621	39.23
461.079	37.01
461.538	32.53
461.997	35.25
462.455	36.2
462.914	34.8
463.372	38.18
463.831	37.71
464.289	36.44
464.748	43.46
465.206	39.26
465.664	39.94
466.123	38.76
466.581	35.63
467.039	37.75
467.497	36.83
467.956	41.38
468.414	36.61
468.872	38.24
469.33	39.62
469.788	39.09
470.246	38.8
470.704	40.72
471.162	38.61
471.62	35.23
472.078	39.3
472.536	39.12
472.994	40.35
473.452	38.37
473.91	37.34
474.368	36.43
474.826	36
475.283	42.48
475.741	38.35
476.199	38.69
476.656	44.17
477.114	39.37
477.572	38.54
478.029	39.64
478.487	39.45
478.944	44.39
479.402	41.61
479.859	48.74
480.317	48.17
480.774	39.18
481.232	46.33
481.689	44.89
482.146	42.16
482.604	44.93
483.061	45.12
483.518	44.01
483.975	44.01
484.433	43.42
484.89	42.98
485.347	49.89
485.804	48.84
486.261	48.1
486.718	48.9
487.175	46.85
487.632	45.31
488.089	49.63
488.546	45.25
489.003	43.47
489.46	49.19
489.917	50.49
490.373	49.3
490.83	47.68
491.287	49.03
491.744	47.37
492.2	52.25
492.657	45.8
493.114	48.45
493.57	50.09
494.027	54.06
494.484	52.81
494.94	50.36
495.397	52.43
495.853	49.57
496.31	50.34
496.766	50.02
497.222	53.97
497.679	49.9
498.135	52.9
498.591	50.66
499.048	57.95
499.504	52.2
499.96	57.01
500.416	55.45
500.872	55.59
501.329	53.2
501.785	56.66
502.241	52.81
502.697	56.98
503.153	52.65
503.609	56.62
504.065	55.81
504.521	55.02
504.977	57.93
505.432	57.08
505.888	55.92
506.344	56.72
506.8	59.08
507.256	54.97
507.711	55.63
508.167	56.24
508.623	55.04
509.078	53.16
509.534	58.78
509.99	56.96
510.445	56.64
510.901	55.7
511.356	58.01
511.812	56.2
512.267	56.3
512.722	55.44
513.178	59.85
513.633	56.47
514.089	58.84
514.544	57.25
514.999	59.83
515.454	60
515.91	59.86
516.365	55.45
516.82	56.61
517.275	61.88
517.73	58.91
518.185	62.18
518.64	56.85
519.095	58.46
519.55	59.39
520.005	60.28
520.46	63.6
520.915	59.98
521.37	61.47
521.825	59.73
522.28	60.05
522.734	60.26
523.189	59.76
523.644	61
524.099	60.27
524.553	59.42
525.008	63.49
525.462	61.04
525.917	62.39
526.372	61.9
526.826	65.43
527.281	59.23
527.735	61.51
528.19	64.22
528.644	62.01
529.098	61.97
529.553	65.69
530.007	65.38
530.461	64.58
530.916	62.64
531.37	64.53
531.824	63.09
532.278	65.66
532.732	69.07
533.186	66.24
533.641	65.71
534.095	68.29
534.549	66.4
535.003	63.8
535.457	70.16
535.911	65.51
536.365	63.17
536.818	67.84
537.272	68.29
537.726	66.09
538.18	68.22
538.634	70
539.087	67.49
539.541	68.28
539.995	69.67
540.449	73.57
540.902	71.77
541.356	71.33
541.809	76.28
542.263	72.32
542.716	75.71
543.17	68.49
543.623	74.54
544.077	76.53
544.53	69.39
544.984	74.38
545.437	72.2
545.89	68.1
546.344	78.03
546.797	72.93
547.25	73.4
547.703	74.86
548.157	76.55
548.61	74.81
549.063	76.06
549.516	74.48
549.969	78.99
550.422	78.83
550.875	78.62
551.328	73.78
551.781	79.77
552.234	79.35
552.687	78.01
553.14	74.35
553.592	76.46
554.045	77.1
554.498	78.54
554.951	77.91
555.404	78.84
555.856	77.53
556.309	79.52
556.762	78.87
557.214	76.56
557.667	79.68
558.119	79.88
558.572	74.98
559.024	82.82
559.477	79.75
559.929	76.94
560.382	78.23
560.834	76.14
561.286	75.22
561.739	78.89
562.191	81.61
562.643	78.1
563.095	80.28
563.548	79.62
564	81.07
564.452	79.26
564.904	80.76
565.356	81.66
565.808	79.94
566.26	78.48
566.712	82.66
567.164	81.05
567.616	79.65
568.068	80.81
568.52	78.68
568.972	82.84
569.424	81.96
569.876	79.51
570.327	80.85
570.779	83.8
571.231	83.43
571.682	83.2
572.134	82.35
572.586	83.4
573.037	82.23
573.489	81.55
573.941	84.05
574.392	82.98
574.844	81.06
575.295	84.02
575.746	80.78
576.198	83.73
576.649	83.2
577.101	86.78
577.552	81.16
578.003	82.77
578.454	84.04
578.906	79.12
579.357	81.8
579.808	83.59
580.259	85.39
580.71	86.48
581.161	84.83
581.612	85.05
582.064	83.03
582.515	83.16
582.965	84.28
583.416	80.84
583.867	83.65
584.318	84.42
584.769	84.35
585.22	85.42
585.671	85.59
586.122	86.31
586.572	85.33
587.023	87.5
587.474	81.4
587.924	88.34
588.375	88.55
588.826	83.83
589.276	86.26
589.727	80.41
590.177	87.98
590.628	84.91
591.078	84.41
591.529	88.17
591.979	85.26
592.429	88.36
592.88	88.69
593.33	87.79
593.78	86.82
594.231	86.61
594.681	87.2
595.131	85.31
595.581	86.98
596.031	85.4
596.481	83.87
596.932	85.59
597.382	86.31
597.832	85.15
598.282	90.1
598.732	88.31
599.182	85.76
599.632	88.06
600.081	84.28
600.531	86.8
600.981	88.62
601.431	84.27
601.881	88.68
602.33	86.88
602.78	88.08
603.23	88.14
603.679	86.75
604.129	91.02
604.579	86.83
605.028	88.21
605.478	85.23
605.927	89.78
606.377	86.08
606.826	87.86
607.276	89.12
607.725	88.59
608.175	87.28
608.624	85.98
609.073	86.36
609.522	88.81
609.972	87.14
610.421	88.8
610.87	85.97
611.319	90.12
611.768	88.42
612.218	87.47
612.667	87.06
613.116	88.43
613.565	87.6
614.014	85.64
614.463	89.17
614.912	91.21
615.361	87.14
615.81	85.99
616.258	89.15
616.707	88.94
617.156	89.5
617.605	86.41
618.054	88.06
618.502	85.27
618.951	89.29
619.4	89.88
619.848	89.02
620.297	87.66
620.745	89.29
621.194	85.97
621.642	89.12
622.091	87.32
622.539	87.86
622.988	89.47
623.436	92.78
623.885	88.07
624.333	91.2
624.781	88.33
625.23	85.54
625.678	89.15
626.126	86.92
626.574	86.68
627.022	91.09
627.471	87.87
627.919	85.39
628.367	87.44
628.815	88.65
629.263	87.46
629.711	88.56
630.159	87.41
630.607	88.45
631.055	87.36
631.503	87.21
631.95	87.6
632.398	88.58
632.846	90.66
633.294	87.64
633.742	88.51
634.189	87.26
634.637	88.31
635.085	87.26
635.532	89.94
635.98	88.16
636.427	88.37
636.875	86.7
637.323	88.98
637.77	91.54
638.217	91.13
638.665	87.16
639.112	88.4
639.56	86.06
640.007	88.46
640.454	85.51
640.902	87.95
641.349	87.5
641.796	88.47
642.243	86.31
642.69	87.77
643.138	88.35
643.585	88.51
644.032	87.36
644.479	86.34
644.926	87.34
645.373	88.1
645.82	87.95
646.267	89.88
646.714	85.65
647.161	87.78
647.607	86.18
648.054	86.18
648.501	88.36
648.948	86.27
649.395	87.35
649.841	87.38
650.288	86.97
650.735	87.96
651.181	86.27
651.628	85.13
652.075	87.76
652.521	88.19
652.968	86.75
653.414	86.03
653.861	86.64
654.307	86.82
654.753	89.27
655.2	86
655.646	89.76
656.092	88.08
656.539	85.21
656.985	86.78
657.431	86.43
657.877	85.89
658.324	89.53
658.77	86.73
659.216	84.44
659.662	87.07
660.108	88.14
660.554	88.9
661	84.95
661.446	86.51
661.892	87.16
662.338	85.32
662.784	87.15
663.23	86.55
663.675	87.08
664.121	86.43
664.567	87.68
665.013	85.08
665.458	84.3
665.904	87.42
666.35	84.51
666.795	88.51
667.241	87.43
667.687	85.44
668.132	88.21
668.578	87.33
669.023	85.32
669.469	84.54
669.914	87.84
670.359	85.19
670.805	85.72
671.25	86.84
671.695	86.59
672.141	87.44
672.586	85.51
673.031	87.32
673.476	86.28
673.922	86.4
674.367	84.92
674.812	85.11
675.257	86.61
675.702	86.69
676.147	85.24
676.592	86.72
677.037	85.83
677.482	86.62
677.927	84.39
678.372	87.62
678.817	86.61
679.261	85.08
679.706	84.98
680.151	83.61
680.596	83.88
681.04	85.28
681.485	83.79
681.93	85.54
682.374	86.53
682.819	85.96
683.264	86.04
683.708	85.87
684.153	83.99
684.597	85.56
685.042	86.98
685.486	86.12
685.93	84.97
686.375	84.93
686.819	84.62
687.263	84.59
687.708	86.06
688.152	85.09
688.596	86.34
689.04	84.96
689.485	84.61
689.929	84.31
690.373	84.32
690.817	85.31
691.261	82.85
691.705	85.87
692.149	85.36
692.593	84.32
693.037	85.44
693.481	86.82
693.925	85.68
694.369	84.28
694.812	84.67
695.256	86.52
695.7	86.45
696.144	83.86
696.587	84.34
697.031	83.7
697.475	85.69
697.918	85.15
698.362	85.14
698.806	86.36
699.249	83.79
699.693	88.29
700.136	82.65
700.58	83.96
701.023	83.7
701.466	85.68
701.91	83.71
702.353	83.48
702.796	85.09
703.24	83.79
703.683	82.05
704.126	85.13
704.569	85.09
705.013	83.67
705.456	84.16
705.899	85.57
706.342	83.07
706.785	85
707.228	84.02
707.671	82.69
708.114	84.01
708.557	84.89
709	82.63
709.443	82.05
709.886	85.07
710.328	83.06
710.771	82.99
711.214	85.51
711.657	82.01
712.099	81.18
712.542	84.23
712.985	84.58
713.427	84
713.87	82.46
714.313	86.41
714.755	83.16
715.198	83.63
715.64	81.25
716.083	84.1
716.525	82.87
716.967	84.58
717.41	82.95
717.852	82.8
718.295	84.58
718.737	82.01
719.179	80.84
719.621	84.44
720.063	83.49
720.506	84.07
720.948	83.33
721.39	83.5
721.832	83.37
722.274	83.48
722.716	83.5
723.158	84.52
723.6	82.88
724.042	82.33
724.484	84.06
724.926	83.27
725.368	83.11
725.81	82.26
726.251	84.4
726.693	82.17
727.135	83.86
727.577	83.46
728.018	84.01
728.46	83.65
728.902	83.59
729.343	82.92
729.785	82.24
730.226	83.22
730.668	82.62
731.109	83.12
731.551	81.4
731.992	82.5
732.434	83.7
732.875	83.55
733.316	82.56
733.758	82.94
734.199	82.03
734.64	79.86
735.081	82.23
735.523	83.2
735.964	81.21
736.405	82.85
736.846	81.14
737.287	82.94
737.728	80.04
738.169	82.47
738.61	80.54
739.051	80.87
739.492	82.66
739.933	81.73
740.374	82.98
740.815	80.81
741.256	79.94
741.696	82.58
742.137	80.91
742.578	80.75
743.019	80.07
743.459	81.27
743.9	82.09
744.341	81.81
744.781	80.07
745.222	80.3
745.662	81.6
746.103	82.61
746.543	80.38
746.984	83.4
747.424	81.18
747.865	81.26
748.305	81
748.745	81.75
749.186	78.96
749.626	81.1
750.066	81.31
750.506	81.28
750.947	79.89
751.387	79.37
751.827	82.05
752.267	79.61
752.707	80.75
753.147	81.04
753.587	80.51
754.027	80.29
754.467	80.21
754.907	80.46
755.347	82.15
755.787	81.05
756.227	81.44
756.667	79.31
757.107	81.8
757.546	79.56
757.986	80.07
758.426	78.15
758.865	81.35
759.305	79.49
759.745	78.71
760.184	81.5
760.624	79.4
761.063	81.05
761.503	81.46
761.943	82.44
762.382	79.04
762.821	79.35
763.261	81.7
763.7	80.14
764.14	79.34
764.579	80.23
765.018	79.13
765.457	80.2
765.897	81.15
766.336	81.22
766.775	79.37
767.214	78.93
767.653	79.23
768.092	79.24
768.531	81.02
768.97	80.92
769.409	79.76
769.848	81.44
770.287	81.16
770.726	81.41
771.165	80.34
771.604	79.16
772.043	78.51
772.482	80.74
772.92	80.45
773.359	79.55
773.798	79.23
774.237	77.38
774.675	78.45
775.114	80.39
775.553	79.13
775.991	79.09
776.43	77.52
776.868	78.7
777.307	79.25
777.745	79.55
778.184	79.57
778.622	79.24
779.06	80.14
779.499	78.84
779.937	78.46
780.375	80.93
780.814	79.96
781.252	79.35
781.69	78.3
782.128	78.09
782.566	78.46
783.004	77.81
783.443	78.62
783.881	79.6
784.319	78.5
784.757	77.75
785.195	79.59
785.633	79.68
786.071	78.5
786.508	79.44
786.946	78.47
787.384	78.02
787.822	78.7
788.26	79.33
788.697	78.81
789.135	80.35
789.573	77.94
790.011	76.51
790.448	78.53
790.886	79.05
791.323	77.01
791.761	77.47
792.198	80.68
792.636	78.39
793.073	76.15
793.511	78.86
793.948	79.76
794.386	78.34
794.823	80
795.26	78.41
795.698	79.1
796.135	78.26
796.572	78.64
797.009	79.46
797.446	79.33
797.884	77.56
798.321	77.29
798.758	77.27
799.195	77.24
799.632	77.37
800.069	78.18
800.506	78.78
800.943	76.71
801.38	77.58
801.817	76.03
802.254	76.89
802.69	78.43
803.127	78.09
803.564	76.97
804.001	77.91
804.438	78.46
804.874	76.3
805.311	77.05
805.748	76.68
806.184	76.15
806.621	78.92
807.057	76.98
807.494	76.29
807.93	77.07
808.367	77.72
808.803	77.19
809.24	77.77
809.676	77.04
810.112	77.77
810.549	75.95
810.985	77.31
811.421	76.33
811.857	77.63
812.294	77.35
812.73	76.45
813.166	77.03
813.602	77.01
814.038	76.44
814.474	76.77
814.91	76.72
815.346	77.31
815.782	78.31
816.218	76.24
816.654	77.31
817.09	77.74
817.526	76.18
817.962	77.78
818.398	77.39
818.833	78.13
819.269	75.82
819.705	76.86
820.141	77.15
820.576	77.13
821.012	76.4
821.447	76.05
821.883	76.83
822.319	76.63
822.754	75.96
823.19	77.5
823.625	76.5
824.061	75.88
824.496	75.76
824.931	77.51
825.367	77.38
825.802	76.52
826.237	76.11
826.673	76.35
827.108	75.86
827.543	75.27
827.978	76.11
828.413	75.36
828.849	76.14
829.284	76.39
829.719	76.16
830.154	76.98
830.589	75.95
831.024	76.46
831.459	76.46
831.894	75.71
832.329	76.49
832.763	74.67
833.198	76.98
833.633	75.95
834.068	75.27
834.503	75.32
834.937	75
835.372	74.29
835.807	74.68
836.241	76.25
836.676	75.62
837.111	75.46
837.545	73.58
837.98	74.36
838.414	75.48
838.849	75.68
839.283	75.38
839.717	75.56
840.152	76.02
840.586	75.65
841.021	75.62
841.455	75.57
841.889	77.28
842.323	74.66
842.758	75.18
843.192	76.04
843.626	75.75
844.06	74.31
844.494	74.51
844.928	74.17
845.362	75.51
845.796	74.94
846.23	74.64
846.664	75.05
847.098	75.51
847.532	75.66
847.966	75.05
848.4	75.1
848.834	75.77
849.267	75.11
849.701	75.21
850.135	75
850.569	75.36
851.002	76.69
851.436	75.19
851.87	74.63
852.303	73.3
852.737	75.41
853.17	74.37
853.604	74.02
854.037	73.96
854.471	75.27
854.904	75.72
855.337	75.08
855.771	76.01
856.204	74.24
856.637	74.37
857.071	75.8
857.504	75.19
857.937	74.65
858.37	74.75
858.804	75.82
859.237	74.9
859.67	75.71
860.103	75.7
860.536	73.85
860.969	75.45
861.402	75.59
861.835	74.28
862.268	74.01
862.701	74.32
863.134	74.72
863.566	74.46
863.999	73.75
864.432	75.54
864.865	73.59
865.298	74.79
865.73	73.92
866.163	73.64
866.596	74.82
867.028	73.31
867.461	72.71
867.893	73.46
868.326	74.69
868.758	73.5
869.191	73.34
869.623	73.16
870.056	74.01
870.488	74.33
870.92	73.8
871.353	74.1
871.785	73.97
872.217	73.16
872.65	73.11
873.082	73.9
873.514	72.12
873.946	73.82
874.378	72.96
874.81	74.47
875.243	72.97
875.675	73.5
876.107	72.24
876.539	73.4
876.971	73.08
877.403	73.32
877.834	73.8
878.266	74.66
878.698	72.98
879.13	73.21
879.562	72.84
879.994	72.99
880.425	73.19
880.857	72.88
881.289	72.77
881.72	73.29
882.152	72.79
882.584	72.6
883.015	73.12
883.447	72.18
883.878	73.08
884.31	73.33
884.741	73.21
885.173	72.36
885.604	73.15
886.035	74.11
886.467	73.46
886.898	73.16
887.329	72.8
887.76	72.1
888.192	72.6
888.623	72.75
889.054	73.92
889.485	74.17
889.916	73.84
890.347	72.48
890.778	72.73
891.209	72.07
891.64	72.78
892.071	73.39
892.502	73.64
892.933	73.5
893.364	72.73
893.795	73.01
894.226	72.45
894.657	72.42
895.087	72.53
895.518	72.08
895.949	72.58
896.38	74.26
896.81	73.03
897.241	72.65
897.671	73.07
898.102	73.39
898.533	73.62
898.963	72.7
899.394	71.57
899.824	72.69
900.254	72.03
900.685	73.54
901.115	72.76
901.546	71.53
901.976	72.68
902.406	71.84
902.836	72.35
903.267	71.24
903.697	71.51
904.127	71.83
904.557	72.26
904.987	71.12
905.417	70.87
905.847	71.98
906.277	71.76
906.707	72.39
907.137	72.1
907.567	71.48
907.997	71.78
908.427	71.8
908.857	70.78
909.287	71.13
909.717	71.83
910.146	71.39
910.576	71.97
911.006	70.44
911.436	72.55
911.865	70.71
912.295	71.59
912.724	71.42
913.154	70.52
913.584	71.21
914.013	70.89
914.443	71.55
914.872	71.44
915.302	71.8
915.731	71.69
916.16	72.2
916.59	71.86
917.019	72.12
917.448	70.45
917.878	71.16
918.307	70.91
918.736	71.69
919.165	71.84
919.594	71.08
920.023	71.29
920.452	71.92
920.882	70.65
921.311	71.75
921.74	71.04
922.169	72.28
922.597	70.08
923.026	71.81
923.455	70.96
923.884	72.27
924.313	70.45
924.742	72.14
925.171	72.18
925.599	71.64
926.028	71.51
926.457	71.23
926.885	70.93
927.314	71.47
927.743	70.21
928.171	71.18
928.6	70.79
929.028	70.77
929.457	71.3
929.885	70.44
930.314	70.98
930.742	69.92
931.17	70.46
931.599	69.88
932.027	71.51
932.455	69.44
932.884	70.1
933.312	70.68
933.74	69.34
934.168	70.12
934.596	70.73
935.025	69.72
935.453	69.27
935.881	70
936.309	69.13
936.737	69.58
937.165	68.09
937.593	69.47
938.021	69.83
938.449	69.64
938.876	69.96
939.304	68.05
939.732	69.43
940.16	69.6
940.588	69.82
941.015	69.33
941.443	71.04
941.871	69.71
942.298	70.16
942.726	70.11
943.154	70.03
943.581	70.43
944.009	70.9
944.436	70.53
944.864	70.05
945.291	70.27
945.718	70.29
946.146	71.25
946.573	69.8
947.001	70
947.428	69.19
947.855	69.74
948.282	70.22
948.71	70.39
949.137	68.92
949.564	71.43
949.991	70.27
950.418	69.92
950.845	68.73
951.272	70.39
951.699	69.54
952.126	69.57
952.553	68.43
952.98	70.16
953.407	69.28
953.834	70.4
954.261	69.37
954.688	69.24
955.114	69.95
955.541	69.78
955.968	68.92
956.395	68.68
956.821	68.59
957.248	68.49
957.674	69.82
958.101	69.37
958.528	67.52
958.954	69
959.381	68.53
959.807	70.04
960.234	69.2
960.66	68.91
961.086	68.34
961.513	68.58
961.939	69.8
962.365	69.63
962.792	68.87
963.218	67.79
963.644	67.66
964.07	68.55
964.496	67.51
964.923	67.28
965.349	67.97
965.775	68.6
966.201	68.99
966.627	68.23
967.053	68.89
967.479	67.55
967.905	69.04
968.331	67.48
968.756	67.88
969.182	68.64
969.608	68.2
970.034	68.27
970.46	68.3
970.885	68.38
971.311	67.7
971.737	68.34
972.162	68.54
972.588	67.23
973.014	67.86
973.439	68.27
973.865	67.7
974.29	68.03
974.716	67.94
975.141	67.18
975.567	66.71
975.992	68.59
976.417	67.52
976.843	67.13
977.268	67.44
977.693	66.6
978.119	67.71
978.544	67.19
978.969	68.61
979.394	67.23
979.819	67.38
980.244	67.6
980.669	67.41
981.095	67.11
981.52	67.44
981.945	67.78
982.369	67.15
982.794	68.06
983.219	67.28
983.644	66.66
984.069	67.63
984.494	67.22
984.919	67.49
985.343	67.5
985.768	66.94
986.193	67.73
986.618	67.15
987.042	66.89
987.467	66.65
987.891	67.08
988.316	66.87
988.741	67.16
989.165	68.01
989.59	66.7
990.014	66.97
990.438	67.52
990.863	67.85
991.287	67.85
991.712	67.09
992.136	66.97
992.56	67.17
992.984	67.23
993.409	67.09
993.833	68.03
994.257	67.27
994.681	67.18
995.105	66.59
995.529	66.7
995.953	67.43
996.377	66.96
996.801	67.49
997.225	67.68
997.649	66.54
998.073	67.49
998.497	67.01
998.921	67.8
999.345	67.4
999.769	67.04
1000.192	67.22
1000.616	67.21
1001.04	67.45
1001.464	68.11
1001.887	68.02
1002.311	68.69
1002.734	67.71
1003.158	66.53
1003.582	67.4
1004.005	66.19
1004.429	67.52
1004.852	67.82
1005.275	66.66
1005.699	66.91
1006.122	66.83
1006.546	68.14
1006.969	67.17
1007.392	66.82
1007.815	67.6
1008.239	67.67
1008.662	66.27
1009.085	67.17
1009.508	67.82
1009.931	67.45
1010.354	67.67
1010.778	67.95
1011.201	67.75
1011.624	67.42
1012.047	67.79
1012.469	66.51
1012.892	66.83
1013.315	67.36
1013.738	67.2
1014.161	66.72
1014.584	65.63
1015.007	67.08
1015.429	67.1
1015.852	65.93
1016.275	66.09
1016.697	66.58
1017.12	66.81
1017.543	66.48
1017.965	66.99
1018.388	67.96
1018.81	66.43
1019.233	67.59
1019.655	65.19
1020.078	66.33
1020.5	66.12
1020.922	66.69
1021.345	66.02
1021.767	66.3
1022.189	66.24
1022.612	66.26
1023.034	67.18
1023.456	67.21
1023.878	66.22
1024.301	65.91
1024.723	67.06
1025.145	66.49
1025.567	66.13
1025.989	66.48
1026.411	66.9
1026.833	66.62
1027.255	65.72
1027.677	66.1
1028.099	65.75
1028.52	66.26
1028.942	67.22
1029.364	66.2
1029.786	66.42
1030.208	66.25
1030.629	66.23
1031.051	66.81
1031.473	66.55
1031.894	66.26
1032.316	66.76
1032.738	66.3
1033.159	67.07
1033.581	66.37
1034.002	66.39
1034.424	65.75
1034.845	65.96
1035.267	66.52
1035.688	65.78
1036.109	65.57
1036.531	67.46
1036.952	66.98
1037.373	66.97
1037.794	65.96
1038.216	67.6
1038.637	66.59
1039.058	66.15
1039.479	67.2
1039.9	66.74
1040.321	67.16
1040.742	66.99
1041.163	66.66
1041.584	67.34
1042.005	66.35
1042.426	66.77
1042.847	66.12
1043.268	65.71
1043.689	65.81
1044.11	66.77
1044.53	66.43
1044.951	66.7
1045.372	66.59
1045.793	66.39
1046.213	65.84
1046.634	66.86
1047.055	67.21
1047.475	65
1047.896	66.53
1048.316	66
1048.737	67.16
1049.157	66.91
1049.578	66.2
1049.998	67.23
1050.419	64.79
1050.839	65.39
1051.259	65.65
1051.68	66.62
1052.1	66.22
1052.52	66.66
1052.94	67.1
1053.361	67.85
1053.781	65.93
1054.201	67.93
1054.621	67.58
1055.041	66.27
1055.461	66.22
1055.881	66.05
1056.301	66.49
1056.721	67.39
1057.141	66.24
1057.561	67.04
1057.981	66.58
1058.401	66.15
1058.82	66.3
1059.24	66.76
1059.66	66.2
1060.08	68.1
1060.499	65.53
1060.919	66.99
1061.339	67.31
1061.758	65.76
1062.178	67.73
1062.598	66.71
1063.017	65.62
1063.437	67.67
1063.856	68.5
1064.276	66.95
1064.695	65.03
1065.114	67.91
1065.534	65.74
1065.953	68.25
1066.372	66.72
1066.792	66.66
1067.211	67.62
1067.63	66
1068.049	67.31
1068.469	67.03
1068.888	66.98
1069.307	66.57
1069.726	66.92
1070.145	66.84
1070.564	65.37
1070.983	67.02
1071.402	67.99
1071.821	66.04
1072.24	68.17
1072.659	65.74
1073.078	65.93
1073.496	67.56
1073.915	66.36
1074.334	66.53
1074.753	66.89
1075.171	66.62
1075.59	65.85
1076.009	66.86
1076.427	66.74
1076.846	68.24
1077.265	67.08
1077.683	65.47
1078.102	65.93
1078.52	67.83
1078.939	64.65
1079.357	66.88
1079.776	66.65
1080.194	65.63
1080.612	68.6
1081.031	66.9
1081.449	63.11
1081.867	67.95
1082.285	65.18
1082.704	67.65
1083.122	67.24
1083.54	66.4
1083.958	67.01
1084.376	65.04
1084.794	67.93
1085.212	67.91
1085.63	65.15
1086.048	67.26
1086.466	65.17
1086.884	67.14
1087.302	66.02
1087.72	68
1088.138	64.75
1088.555	67.22
1088.973	62.9
1089.391	68.17
1089.809	67.81
1090.226	67.85
1090.644	66.87
1091.062	65.32
1091.479	64.93
1091.897	65.71
1092.314	66.21
1092.732	64.49
1093.15	64.69
1093.567	67.17
1093.984	67.4
1094.402	66.32
1094.819	67.89
1095.237	68.97
1095.654	67
1096.071	69.03
1096.488	65.21
1096.906	63.61
1097.323	68.21
1097.74	65.59
1098.157	67.28
1098.574	66
1098.991	63.78
1099.409	66.93
1099.826	69.63
1100.243	64.21
1100.66	67.2
1101.077	66.23
1101.494	70.73
1101.91	64.93
1102.327	70.62
1102.744	66.37
1103.161	62.68
1103.578	67.41
1103.994	63.75
1104.411	65.95
1104.828	67.79
1105.245	67.08
1105.661	70.12
1106.078	68.26
1106.494	69.88
1106.911	66.22
1107.328	64.21
1107.744	67.81
1108.161	64.55
1108.577	65.28
1108.993	68.6
1109.41	66.92
1109.826	65.97
1110.242	67.87
1110.659	66.75
1111.075	63.6
1111.491	66.23
1111.908	65.25
1112.324	66.42
1112.74	81.97
1113.156	64.66
1113.572	66.04
1113.988	68.06
1114.404	67.28
1114.82	64.43
1115.236	65.07
1115.652	66.56
1116.068	70.62
1116.484	70.7
1116.9	73.47
1117.316	72.65
1117.732	3000
1118.147	600
1118.563	17.65
1118.979	23.08
