Data from JCR0021_WhiteVentral_Reflection_00001.txt Node
Date: Fri Jul 31 10:13:26 ACST 2020
User: Stacey Dix
Spectrometer: MAYP113282
Scans to average: 1
Trigger mode: 0
Integration Time (sec): 1.000000E-1
Electric dark correction enabled: true
Boxcar width: 0
XAxis mode: Wavelengths
Number of Pixels in Spectrum: 2068
>>>>>Begin Spectral Data<<<<<
198.791	657.58
199.266	322.22
199.74	322.22
200.215	-25.93
200.69	321.71
201.164	115.33
201.639	101.47
202.114	129.04
202.588	277.01
203.063	176.62
203.537	154.04
204.012	125.1
204.486	127.41
204.961	71.78
205.435	104.2
205.909	102.3
206.384	117.63
206.858	120.29
207.332	101.02
207.807	136.44
208.281	133.05
208.755	106.53
209.229	140.42
209.703	155.2
210.177	182.4
210.651	103.78
211.126	98.34
211.6	125.9
212.074	123.68
212.548	133
213.021	94.83
213.495	117.97
213.969	119.71
214.443	132.04
214.917	92.13
215.391	112.99
215.864	124.65
216.338	98.75
216.812	137.47
217.286	132.74
217.759	96.58
218.233	84.45
218.706	93.61
219.18	72.04
219.654	77.68
220.127	72.91
220.6	75.32
221.074	103.76
221.547	63.98
222.021	87.21
222.494	73.8
222.967	76.35
223.441	67.2
223.914	69.53
224.387	64.4
224.86	54.71
225.334	72.12
225.807	60.39
226.28	49.08
226.753	54
227.226	62.1
227.699	52.3
228.172	45.71
228.645	49.97
229.118	41.8
229.591	43.67
230.064	40.18
230.537	40.97
231.01	40.74
231.482	39.99
231.955	53.92
232.428	38.2
232.901	40.21
233.373	37.17
233.846	29.2
234.319	35.46
234.791	29.54
235.264	29.37
235.736	30.15
236.209	36.27
236.681	32.59
237.154	29.78
237.626	29.56
238.099	33.46
238.571	26.39
239.044	27.15
239.516	27.96
239.988	26.21
240.46	28.08
240.933	26.98
241.405	27.62
241.877	26.01
242.349	26.35
242.821	24.78
243.293	25.44
243.765	22.03
244.237	24.81
244.71	25.47
245.181	26.47
245.653	23.14
246.125	26.32
246.597	25.3
247.069	23.71
247.541	22.82
248.013	23.92
248.485	23.85
248.956	23.29
249.428	21.5
249.9	25.71
250.371	24.48
250.843	23.88
251.315	23.18
251.786	22.39
252.258	19.71
252.729	20.59
253.201	22.43
253.672	23.25
254.144	19.47
254.615	20.1
255.086	19.8
255.558	18.7
256.029	21.06
256.5	20.9
256.972	18.64
257.443	20.71
257.914	19.7
258.385	20.79
258.856	18.41
259.327	19.66
259.799	20.01
260.27	19.49
260.741	19.86
261.212	18.58
261.683	20.27
262.154	20.21
262.624	19.38
263.095	18.93
263.566	20.48
264.037	20.44
264.508	19.7
264.979	19.3
265.449	18.87
265.92	18.78
266.391	19.24
266.861	19.72
267.332	19.2
267.803	19.34
268.273	18.46
268.744	18.86
269.214	18.6
269.685	19.61
270.155	18.76
270.626	16.4
271.096	18.95
271.566	21.09
272.037	19.42
272.507	20.03
272.977	23.6
273.448	18.76
273.918	19.81
274.388	18.44
274.858	20.43
275.328	20.47
275.798	19.21
276.268	19.58
276.738	20.26
277.208	18.32
277.678	20.62
278.148	21.83
278.618	18.81
279.088	20.18
279.558	20.21
280.028	19.4
280.498	19.27
280.968	20.97
281.437	20.75
281.907	19.26
282.377	18.72
282.847	17.89
283.316	19.16
283.786	19.54
284.255	19.57
284.725	18.28
285.194	19.64
285.664	17.28
286.133	17.97
286.603	18.59
287.072	17.94
287.542	16.64
288.011	18.28
288.48	18.53
288.95	18.44
289.419	17.33
289.888	19.95
290.357	19.14
290.827	19.39
291.296	19.19
291.765	18.48
292.234	19.48
292.703	17.15
293.172	19.69
293.641	16.94
294.11	19.28
294.579	19.16
295.048	19.05
295.517	20.04
295.986	19.27
296.455	17.99
296.923	19.43
297.392	18.59
297.861	19.98
298.33	18.58
298.798	18.15
299.267	19.83
299.736	19.43
300.204	18.61
300.673	18.67
301.141	19
301.61	18.17
302.079	20.13
302.547	17.77
303.015	18.22
303.484	17.87
303.952	19.89
304.421	18.52
304.889	17.68
305.357	19.95
305.825	17.95
306.294	18.76
306.762	19.23
307.23	20.47
307.698	20.1
308.166	18.16
308.634	17.83
309.103	19.06
309.571	21.35
310.039	20.76
310.507	19.74
310.975	21.59
311.442	17.97
311.91	18.16
312.378	19.69
312.846	19.89
313.314	18.91
313.782	19.31
314.249	19.9
314.717	18.66
315.185	19.99
315.652	18.63
316.12	19.52
316.588	19.21
317.055	19.73
317.523	18.4
317.99	19.41
318.458	17.98
318.925	18.45
319.393	20.32
319.86	19.38
320.328	19.1
320.795	18.82
321.262	20.2
321.73	20.72
322.197	20.57
322.664	19.72
323.131	19.94
323.598	22.54
324.066	20.14
324.533	20.44
325	22.81
325.467	21.37
325.934	23.32
326.401	21.66
326.868	24.41
327.335	24.07
327.802	24.9
328.269	25.96
328.735	27.02
329.202	26.25
329.669	27.84
330.136	27.14
330.603	29.92
331.069	29.82
331.536	28.01
332.003	31.13
332.469	30.84
332.936	29.93
333.402	33.44
333.869	34.72
334.336	31.59
334.802	33.5
335.268	32.06
335.735	32.62
336.201	33.72
336.668	35.64
337.134	35.07
337.6	32.47
338.067	33.94
338.533	33.47
338.999	34.29
339.465	36.61
339.931	33.53
340.398	34.69
340.864	35.32
341.33	36.38
341.796	35.2
342.262	36.71
342.728	36.39
343.194	34.32
343.66	34.17
344.126	35.84
344.592	35.76
345.057	34.35
345.523	36.45
345.989	36.37
346.455	36.64
346.921	35.82
347.386	34.71
347.852	35.09
348.318	33.64
348.783	36.21
349.249	34.47
349.714	36.39
350.18	38.33
350.645	37.99
351.111	37.05
351.576	37.11
352.042	36.01
352.507	37.32
352.973	39.92
353.438	36.22
353.903	40.41
354.369	38.1
354.834	37.12
355.299	36.32
355.764	37.4
356.229	37.44
356.695	38.76
357.16	38.76
357.625	36.06
358.09	37.6
358.555	38.16
359.02	37.42
359.485	37.16
359.95	37.32
360.415	38.12
360.879	37.44
361.344	38.13
361.809	37.14
362.274	34.74
362.739	37.29
363.203	38.99
363.668	38.58
364.133	37.59
364.597	36.5
365.062	36.62
365.527	38.15
365.991	37.34
366.456	38.07
366.92	35.7
367.385	37.62
367.849	36.94
368.314	38.46
368.778	40.88
369.242	39.29
369.707	38.99
370.171	36.73
370.635	38.74
371.1	38.81
371.564	39.19
372.028	40.48
372.492	38.98
372.956	37.02
373.42	39.64
373.884	39.51
374.348	37.83
374.812	40.72
375.276	39.05
375.74	39.64
376.204	40.35
376.668	38.64
377.132	40.64
377.596	39.72
378.06	38.77
378.524	39.11
378.987	39.97
379.451	38.78
379.915	37.83
380.378	39.23
380.842	40.75
381.306	40.48
381.769	39.4
382.233	42.04
382.696	40.04
383.16	40.95
383.623	40.94
384.087	38.47
384.55	40.84
385.014	40.43
385.477	41.53
385.94	43.13
386.404	40.42
386.867	42.6
387.33	38.78
387.793	38.99
388.256	40.02
388.72	40.32
389.183	40.36
389.646	39.82
390.109	40.14
390.572	39.66
391.035	42.09
391.498	39.91
391.961	41.49
392.424	40.01
392.887	40.84
393.35	42.56
393.812	42.85
394.275	39.38
394.738	39.48
395.201	37.46
395.664	40.94
396.126	39.61
396.589	40.88
397.052	39.02
397.514	42.74
397.977	40.1
398.439	39.61
398.902	39.64
399.364	39.62
399.827	41.32
400.289	38.3
400.752	42.62
401.214	44.22
401.676	39.35
402.139	40.93
402.601	41.01
403.063	41.66
403.525	44.43
403.988	41.71
404.45	41.95
404.912	41.06
405.374	41.36
405.836	41.22
406.298	40.08
406.76	39.71
407.222	40.85
407.684	42.91
408.146	41.61
408.608	38.07
409.07	43.02
409.532	40.27
409.994	40.72
410.456	41.17
410.917	43.6
411.379	38.46
411.841	40.34
412.303	40.72
412.764	42.43
413.226	40.82
413.687	40.86
414.149	42.09
414.611	41.99
415.072	42.05
415.534	41.38
415.995	41.76
416.457	40.25
416.918	41.41
417.379	39.67
417.841	40.35
418.302	41.53
418.763	41.07
419.225	43.18
419.686	42.37
420.147	41.77
420.608	42.57
421.069	42.76
421.53	43.35
421.991	41.73
422.453	43.52
422.914	41.95
423.375	41.38
423.836	44.48
424.297	44.37
424.757	42.28
425.218	44.06
425.679	45.07
426.14	44.12
426.601	45.06
427.062	44.35
427.522	43.06
427.983	43.03
428.444	46.78
428.904	49.58
429.365	47.42
429.826	45.47
430.286	47.18
430.747	48.95
431.207	42.37
431.668	52.85
432.128	50.96
432.589	51.84
433.049	49.13
433.509	49.06
433.97	51.65
434.43	50.04
434.89	47.77
435.351	49.15
435.811	51.05
436.271	47.01
436.731	50.61
437.191	48.39
437.651	47.52
438.112	49.61
438.572	51.17
439.032	49.08
439.492	48.23
439.952	54.49
440.412	47.54
440.871	51.11
441.331	52.27
441.791	51.17
442.251	53.17
442.711	51.36
443.171	50.47
443.63	50.95
444.09	51.67
444.55	51.16
445.009	53.17
445.469	54
445.929	55.05
446.388	52.44
446.848	53.14
447.307	51.28
447.767	50.04
448.226	51.14
448.686	52.78
449.145	53.35
449.604	51.76
450.064	50.99
450.523	52.29
450.982	53.37
451.442	52.03
451.901	50.79
452.36	54.3
452.819	49.23
453.278	52.65
453.737	51.56
454.197	51.58
454.656	54.2
455.115	54.7
455.574	50.57
456.033	51.74
456.492	52.06
456.95	55.86
457.409	54.9
457.868	51.48
458.327	54.67
458.786	55.87
459.245	54.88
459.703	52.13
460.162	54.29
460.621	52.25
461.079	54.12
461.538	55.79
461.997	53.97
462.455	52.8
462.914	54.56
463.372	53.82
463.831	52.91
464.289	53.78
464.748	54.08
465.206	53.63
465.664	54.6
466.123	53.18
466.581	54.26
467.039	54.23
467.497	56.46
467.956	55.31
468.414	56.95
468.872	56.19
469.33	54.99
469.788	56.45
470.246	53.42
470.704	53.75
471.162	51.18
471.62	55.72
472.078	54.99
472.536	55.98
472.994	53.55
473.452	55.82
473.91	58.22
474.368	54.72
474.826	56.53
475.283	56.15
475.741	57.59
476.199	55.04
476.656	56.48
477.114	54.93
477.572	55.62
478.029	55.42
478.487	57.83
478.944	54.94
479.402	56.5
479.859	54.47
480.317	58.68
480.774	59.28
481.232	59.34
481.689	54.96
482.146	54.09
482.604	55.19
483.061	55.9
483.518	56.31
483.975	57.02
484.433	54.67
484.89	54.16
485.347	53.33
485.804	59.5
486.261	56.8
486.718	60.1
487.175	59.57
487.632	54.1
488.089	59.31
488.546	57.46
489.003	61
489.46	57.29
489.917	59.14
490.373	57.51
490.83	52.18
491.287	59.55
491.744	52.71
492.2	58.17
492.657	56.6
493.114	52.96
493.57	54.61
494.027	61.48
494.484	58.28
494.94	56.06
495.397	58.66
495.853	55.97
496.31	60.98
496.766	57.07
497.222	59.24
497.679	58.05
498.135	55.81
498.591	60.21
499.048	57.56
499.504	60.1
499.96	55.78
500.416	57.01
500.872	53.03
501.329	59.69
501.785	55.19
502.241	56.03
502.697	55.49
503.153	59.82
503.609	55.1
504.065	59.97
504.521	59.36
504.977	58.98
505.432	57.21
505.888	58.86
506.344	55.64
506.8	54.49
507.256	54.01
507.711	58.71
508.167	57.84
508.623	59.39
509.078	56.56
509.534	57.05
509.99	57.81
510.445	56.4
510.901	57.84
511.356	57.23
511.812	61.6
512.267	56.99
512.722	55.16
513.178	56.12
513.633	53.42
514.089	55.14
514.544	53.72
514.999	55.1
515.454	54.52
515.91	57.45
516.365	55.86
516.82	57.65
517.275	56.4
517.73	59.67
518.185	52.92
518.64	56.12
519.095	59.25
519.55	55.75
520.005	57.63
520.46	55.29
520.915	57.38
521.37	58.24
521.825	57.43
522.28	53.37
522.734	56.59
523.189	55.48
523.644	57.65
524.099	57.35
524.553	55.04
525.008	58.32
525.462	58.11
525.917	55.12
526.372	57.03
526.826	55.99
527.281	55.99
527.735	60.36
528.19	55.7
528.644	57.49
529.098	57.7
529.553	56.19
530.007	55.87
530.461	60.29
530.916	55.88
531.37	57.16
531.824	55.8
532.278	55.49
532.732	59.41
533.186	56.26
533.641	57.34
534.095	54.05
534.549	58.52
535.003	53.53
535.457	59.45
535.911	58.68
536.365	56.73
536.818	60.6
537.272	60.79
537.726	56.35
538.18	55.43
538.634	56.47
539.087	55.66
539.541	57.68
539.995	55.12
540.449	57.79
540.902	59
541.356	57.96
541.809	57.43
542.263	57.14
542.716	60.71
543.17	55.07
543.623	63.1
544.077	58.23
544.53	55.37
544.984	57.43
545.437	56.03
545.89	54.32
546.344	53.4
546.797	56.66
547.25	57.26
547.703	56.34
548.157	56.31
548.61	56.43
549.063	55.09
549.516	60.59
549.969	60.87
550.422	57.29
550.875	56.2
551.328	56.61
551.781	55.96
552.234	56.71
552.687	56.48
553.14	59.79
553.592	56.8
554.045	58.94
554.498	56.24
554.951	58.64
555.404	59.26
555.856	57.13
556.309	59.91
556.762	58.67
557.214	57.77
557.667	57.48
558.119	58.75
558.572	55.87
559.024	55.4
559.477	57.55
559.929	56.17
560.382	59.65
560.834	56.56
561.286	59.31
561.739	56.14
562.191	55.5
562.643	57.49
563.095	58.89
563.548	58.78
564	57.48
564.452	56.23
564.904	58.11
565.356	55.08
565.808	57.53
566.26	58.37
566.712	54.47
567.164	58.33
567.616	56.07
568.068	58.94
568.52	56.95
568.972	55.64
569.424	58.21
569.876	55.44
570.327	57.08
570.779	56.63
571.231	59.53
571.682	57.32
572.134	59.15
572.586	55.8
573.037	57.98
573.489	56.33
573.941	59.17
574.392	56.7
574.844	59.02
575.295	57.28
575.746	56.56
576.198	58.29
576.649	58.43
577.101	56.37
577.552	57.45
578.003	57.97
578.454	56.3
578.906	57.7
579.357	56.02
579.808	57.02
580.259	53.99
580.71	57.89
581.161	58.89
581.612	56.83
582.064	55.88
582.515	60.47
582.965	55.81
583.416	56.98
583.867	59.05
584.318	55.27
584.769	58.39
585.22	56.78
585.671	57.7
586.122	57.01
586.572	57.36
587.023	58.82
587.474	55.49
587.924	60.14
588.375	56.88
588.826	55.4
589.276	57.62
589.727	59.5
590.177	57.48
590.628	59.14
591.078	59.66
591.529	58.8
591.979	59.16
592.429	57.1
592.88	57.48
593.33	58.98
593.78	59.29
594.231	59.01
594.681	57.83
595.131	59.03
595.581	58.5
596.031	58.67
596.481	58.23
596.932	58.07
597.382	59.64
597.832	57.01
598.282	58.99
598.732	58.94
599.182	56.54
599.632	57.63
600.081	57.07
600.531	59.63
600.981	58.69
601.431	55.17
601.881	58.94
602.33	59.47
602.78	59.91
603.23	55
603.679	59.73
604.129	58.83
604.579	59.17
605.028	60.61
605.478	58.22
605.927	56.37
606.377	59.52
606.826	56.8
607.276	58.73
607.725	56.32
608.175	56.87
608.624	57.72
609.073	57.47
609.522	56.74
609.972	58.85
610.421	56.18
610.87	57.93
611.319	57.15
611.768	57.21
612.218	59.24
612.667	55.84
613.116	58.38
613.565	59.11
614.014	56.85
614.463	58.31
614.912	58.15
615.361	56.7
615.81	56.56
616.258	57.23
616.707	57.69
617.156	58.24
617.605	58.54
618.054	57.92
618.502	58.57
618.951	59.99
619.4	59.01
619.848	57.59
620.297	58.87
620.745	58.11
621.194	59.17
621.642	56.11
622.091	57.35
622.539	57.91
622.988	57.35
623.436	58.14
623.885	57.67
624.333	55.71
624.781	58.51
625.23	60.21
625.678	56.27
626.126	56
626.574	58.65
627.022	57.1
627.471	56.47
627.919	57.59
628.367	56.48
628.815	57.69
629.263	57.08
629.711	56.65
630.159	58.59
630.607	56.62
631.055	58.37
631.503	58.8
631.95	56.38
632.398	57.49
632.846	58
633.294	57.75
633.742	59.41
634.189	57.78
634.637	56.31
635.085	58.89
635.532	58.02
635.98	56.5
636.427	57.99
636.875	58.39
637.323	58.13
637.77	57.16
638.217	57.54
638.665	57.08
639.112	57.7
639.56	57.84
640.007	57.47
640.454	57.55
640.902	58.54
641.349	57.37
641.796	58.35
642.243	59.05
642.69	56.88
643.138	57.33
643.585	57.06
644.032	57.21
644.479	56.98
644.926	56.06
645.373	59.04
645.82	56.73
646.267	57.96
646.714	57.37
647.161	58.37
647.607	57.56
648.054	56.99
648.501	57.69
648.948	59.1
649.395	58.16
649.841	58.35
650.288	58.45
650.735	57.5
651.181	57.77
651.628	56.36
652.075	57.05
652.521	57.56
652.968	58.13
653.414	58.14
653.861	57.74
654.307	58.5
654.753	55.29
655.2	57.95
655.646	57.7
656.092	60.17
656.539	58.94
656.985	58.18
657.431	58.47
657.877	56.91
658.324	58.13
658.77	58.91
659.216	56.64
659.662	57.88
660.108	58.67
660.554	59.03
661	57.23
661.446	58.52
661.892	58.68
662.338	58.44
662.784	59.51
663.23	57.58
663.675	58.41
664.121	57.14
664.567	58.32
665.013	57.71
665.458	58.43
665.904	57.38
666.35	58.26
666.795	57.3
667.241	58.4
667.687	56.14
668.132	57.62
668.578	56.88
669.023	57.5
669.469	56.86
669.914	57.93
670.359	57.19
670.805	59.22
671.25	58.52
671.695	57.57
672.141	58.74
672.586	58.25
673.031	59.23
673.476	57.79
673.922	57.48
674.367	58.17
674.812	58.7
675.257	57.04
675.702	58.66
676.147	57.09
676.592	59.17
677.037	58.39
677.482	58.26
677.927	58.82
678.372	56.97
678.817	57.92
679.261	57.8
679.706	57.51
680.151	57.4
680.596	56.72
681.04	57.21
681.485	58.58
681.93	59.27
682.374	57.42
682.819	57.43
683.264	58.87
683.708	57.54
684.153	58.95
684.597	57.17
685.042	57.53
685.486	57.69
685.93	56.37
686.375	57.63
686.819	57.6
687.263	57.65
687.708	58.15
688.152	57.4
688.596	57.28
689.04	57.95
689.485	57.78
689.929	57.03
690.373	57.73
690.817	58.1
691.261	57.38
691.705	57.37
692.149	59.94
692.593	57.59
693.037	57.92
693.481	58.88
693.925	58.3
694.369	57.63
694.812	56.54
695.256	57.52
695.7	58.14
696.144	58.23
696.587	56.93
697.031	57.65
697.475	59.03
697.918	55.62
698.362	55.82
698.806	58.14
699.249	57.78
699.693	56.92
700.136	57.4
700.58	58.05
701.023	57.86
701.466	57.67
701.91	57.9
702.353	56.21
702.796	57.02
703.24	57.97
703.683	55.92
704.126	57.79
704.569	56.09
705.013	57.24
705.456	55.87
705.899	56.18
706.342	56.4
706.785	58.38
707.228	57.39
707.671	56.33
708.114	57.5
708.557	56.04
709	57.94
709.443	56.51
709.886	57.02
710.328	57.46
710.771	56.78
711.214	56.32
711.657	56.44
712.099	57.08
712.542	57.08
712.985	57.37
713.427	56.58
713.87	55.63
714.313	57.82
714.755	56.67
715.198	57.14
715.64	56.52
716.083	56.5
716.525	56.5
716.967	56.39
717.41	56.69
717.852	57.37
718.295	58.3
718.737	56.48
719.179	56.84
719.621	55.35
720.063	58.14
720.506	56.76
720.948	56.87
721.39	56.85
721.832	57.08
722.274	57.41
722.716	57.99
723.158	58.04
723.6	57.51
724.042	56.13
724.484	56.99
724.926	57.01
725.368	55.45
725.81	57.13
726.251	56.98
726.693	56.43
727.135	56.44
727.577	57.19
728.018	55
728.46	57.36
728.902	56.76
729.343	56.36
729.785	56.68
730.226	56.06
730.668	57.28
731.109	58.05
731.551	56.52
731.992	57.3
732.434	57.13
732.875	57.26
733.316	56.58
733.758	57.86
734.199	55.95
734.64	57.7
735.081	56.48
735.523	56.25
735.964	56.06
736.405	58.45
736.846	58.3
737.287	55.9
737.728	56.7
738.169	56.3
738.61	56.75
739.051	57.58
739.492	55.77
739.933	55.86
740.374	56.45
740.815	56.34
741.256	56.8
741.696	57.83
742.137	56.85
742.578	55.46
743.019	56.97
743.459	56.83
743.9	55.86
744.341	57.5
744.781	56.25
745.222	57.24
745.662	56.12
746.103	56.77
746.543	56.18
746.984	55.77
747.424	57.62
747.865	57.82
748.305	56.53
748.745	55.97
749.186	55.35
749.626	56.79
750.066	57.3
750.506	56.36
750.947	55.44
751.387	55.41
751.827	57.79
752.267	56.92
752.707	57.52
753.147	57.45
753.587	57.16
754.027	55.69
754.467	57.14
754.907	56.79
755.347	56.85
755.787	56.64
756.227	57.57
756.667	57.25
757.107	56.72
757.546	56.46
757.986	56.09
758.426	56.17
758.865	55.4
759.305	56.07
759.745	57.22
760.184	56.14
760.624	55.81
761.063	56.87
761.503	56.26
761.943	58.54
762.382	55.35
762.821	56.69
763.261	55.74
763.7	56.2
764.14	56.56
764.579	55.88
765.018	56.51
765.457	56.86
765.897	56.54
766.336	56.07
766.775	58.24
767.214	57.41
767.653	57.29
768.092	56.06
768.531	55.98
768.97	56.33
769.409	55.97
769.848	56.06
770.287	55.3
770.726	57.15
771.165	56.57
771.604	57.29
772.043	57.26
772.482	57.96
772.92	56.63
773.359	55.34
773.798	57.29
774.237	56.45
774.675	56.31
775.114	57.6
775.553	56.38
775.991	55.51
776.43	56.42
776.868	56.07
777.307	56.07
777.745	56.39
778.184	57.42
778.622	55.12
779.06	56.51
779.499	56.37
779.937	55.08
780.375	56.89
780.814	58.09
781.252	55.79
781.69	55.32
782.128	56.3
782.566	55.93
783.004	54.88
783.443	55.49
783.881	55.97
784.319	55.33
784.757	56.13
785.195	56.54
785.633	56.46
786.071	55.51
786.508	56.57
786.946	55.37
787.384	55.88
787.822	56.12
788.26	55.45
788.697	55.38
789.135	56.41
789.573	56.29
790.011	57.04
790.448	56.1
790.886	55.25
791.323	56.12
791.761	56.73
792.198	55.57
792.636	55.77
793.073	55.55
793.511	55.26
793.948	56.37
794.386	56.76
794.823	57.13
795.26	57.13
795.698	57.28
796.135	56.11
796.572	56.81
797.009	55.52
797.446	56.98
797.884	56.36
798.321	56.59
798.758	56.4
799.195	56.4
799.632	55.88
800.069	55.28
800.506	56.12
800.943	56.44
801.38	55.67
801.817	56.98
802.254	57.45
802.69	55.35
803.127	56.53
803.564	55.34
804.001	55.11
804.438	55.81
804.874	55.15
805.311	55.46
805.748	55.88
806.184	56.04
806.621	55.68
807.057	56.22
807.494	55.43
807.93	56.55
808.367	55.96
808.803	56.02
809.24	55.69
809.676	57.36
810.112	55.35
810.549	55.4
810.985	55.01
811.421	56.27
811.857	55.69
812.294	54.98
812.73	56.12
813.166	55.26
813.602	55.42
814.038	56.02
814.474	55.42
814.91	56.64
815.346	56.41
815.782	55.75
816.218	55.81
816.654	55.35
817.09	56.68
817.526	56.39
817.962	55.76
818.398	55.08
818.833	55.47
819.269	56.18
819.705	55.48
820.141	54.89
820.576	55.92
821.012	56.46
821.447	55.72
821.883	54.56
822.319	55.78
822.754	56.04
823.19	56.65
823.625	55.37
824.061	55.06
824.496	55.61
824.931	56.17
825.367	57.27
825.802	55.59
826.237	56.02
826.673	55.21
827.108	55.83
827.543	56.97
827.978	56.21
828.413	55
828.849	57.25
829.284	55.28
829.719	54.57
830.154	56.28
830.589	55.96
831.024	55.94
831.459	56.11
831.894	55.9
832.329	55.79
832.763	56.57
833.198	56
833.633	55.59
834.068	55.37
834.503	55.05
834.937	54.46
835.372	55.67
835.807	55.59
836.241	54.39
836.676	55.84
837.111	55.3
837.545	54.64
837.98	55.89
838.414	55.57
838.849	55.87
839.283	55.88
839.717	55.23
840.152	55.77
840.586	55.96
841.021	55.39
841.455	56.73
841.889	55.2
842.323	56.68
842.758	55.57
843.192	55.41
843.626	56
844.06	56
844.494	56.2
844.928	55.44
845.362	55.44
845.796	55.04
846.23	55.39
846.664	55.14
847.098	54.53
847.532	55.46
847.966	56.49
848.4	55.5
848.834	55.76
849.267	54.64
849.701	55.56
850.135	55.36
850.569	54.11
851.002	55.44
851.436	55.59
851.87	54.53
852.303	55.59
852.737	55.54
853.17	55.42
853.604	56.32
854.037	55.59
854.471	55.37
854.904	55.78
855.337	55.56
855.771	55.52
856.204	55.77
856.637	56.04
857.071	55.69
857.504	54.78
857.937	54.85
858.37	54.25
858.804	55.64
859.237	55.86
859.67	55.27
860.103	55.68
860.536	54.27
860.969	55.16
861.402	54.45
861.835	55.62
862.268	54.71
862.701	55.04
863.134	55.73
863.566	55.41
863.999	55.48
864.432	54.74
864.865	56
865.298	55.22
865.73	54.93
866.163	54.97
866.596	54.56
867.028	55.13
867.461	55.78
867.893	54.82
868.326	55.72
868.758	54.51
869.191	55.28
869.623	55.59
870.056	54.2
870.488	54.73
870.92	54.73
871.353	55.26
871.785	55.22
872.217	54.88
872.65	55.4
873.082	55.64
873.514	55.11
873.946	55.11
874.378	54.98
874.81	55.15
875.243	55.75
875.675	55.23
876.107	54.98
876.539	55.2
876.971	55.22
877.403	55.28
877.834	54.61
878.266	55.46
878.698	54.74
879.13	54.82
879.562	54.91
879.994	55.21
880.425	55.14
880.857	55.44
881.289	55.46
881.72	56
882.152	55.97
882.584	55.64
883.015	55.06
883.447	54.1
883.878	55.64
884.31	55.3
884.741	53.92
885.173	55.47
885.604	54.85
886.035	54.61
886.467	55.58
886.898	55.2
887.329	54.65
887.76	54.74
888.192	55.66
888.623	55.82
889.054	55.24
889.485	56.22
889.916	54.53
890.347	54.82
890.778	55.16
891.209	54.13
891.64	54.23
892.071	55.05
892.502	54.89
892.933	55.33
893.364	55.81
893.795	55.13
894.226	54.91
894.657	54.68
895.087	55.01
895.518	54.48
895.949	55.63
896.38	54.39
896.81	54.99
897.241	54.25
897.671	55.58
898.102	55
898.533	53.94
898.963	54.5
899.394	55.68
899.824	54.61
900.254	54.74
900.685	54.81
901.115	53.3
901.546	54.9
901.976	54.37
902.406	54.76
902.836	54.77
903.267	54.69
903.697	54.56
904.127	55.18
904.557	54.44
904.987	55.15
905.417	55.41
905.847	54.7
906.277	54.57
906.707	55
907.137	54.77
907.567	54.73
907.997	54.14
908.427	54.4
908.857	54.23
909.287	55.04
909.717	54.39
910.146	54.93
910.576	54.82
911.006	55.14
911.436	54.5
911.865	55.12
912.295	54.93
912.724	54.51
913.154	55.24
913.584	54.44
914.013	54.07
914.443	55.1
914.872	54.74
915.302	54.91
915.731	55.07
916.16	55.17
916.59	55.27
917.019	55.23
917.448	54.77
917.878	55.11
918.307	54.7
918.736	55.23
919.165	55.29
919.594	54.37
920.023	55.04
920.452	54.56
920.882	55.46
921.311	55.71
921.74	54.43
922.169	54.98
922.597	54.61
923.026	55.2
923.455	54.55
923.884	54.76
924.313	54.62
924.742	55.1
925.171	55.39
925.599	54.87
926.028	54.53
926.457	55.47
926.885	54.85
927.314	54.29
927.743	55.69
928.171	55.28
928.6	54.38
929.028	54.98
929.457	55.52
929.885	54.81
930.314	54.91
930.742	55.08
931.17	54.45
931.599	54.87
932.027	55.23
932.455	54.95
932.884	55.07
933.312	54.44
933.74	54.28
934.168	54.02
934.596	54.09
935.025	53.98
935.453	54.46
935.881	53.42
936.309	54.14
936.737	54.09
937.165	54.25
937.593	53.03
938.021	53.6
938.449	53.9
938.876	54.07
939.304	53.13
939.732	53.67
940.16	54.5
940.588	53.97
941.015	54.29
941.443	53.78
941.871	55.04
942.298	54.93
942.726	54.73
943.154	54.27
943.581	54.83
944.009	55.01
944.436	55.63
944.864	55.63
945.291	54.76
945.718	54.86
946.146	56.72
946.573	55.41
947.001	56.6
947.428	54.96
947.855	55.43
948.282	55.76
948.71	56.35
949.137	54.83
949.564	55.16
949.991	54.93
950.418	56
950.845	55.27
951.272	55.22
951.699	53.19
952.126	55.25
952.553	54.75
952.98	56.36
953.407	54.63
953.834	55.58
954.261	54.49
954.688	54.52
955.114	55.51
955.541	55.33
955.968	54.79
956.395	54.54
956.821	54.88
957.248	55.26
957.674	55.01
958.101	55.28
958.528	54.53
958.954	55.29
959.381	54.43
959.807	54.71
960.234	54.11
960.66	54.79
961.086	54.23
961.513	53.92
961.939	55.18
962.365	54.16
962.792	54.79
963.218	54.55
963.644	54.13
964.07	54.91
964.496	54.8
964.923	54.18
965.349	54.89
965.775	54.48
966.201	54.61
966.627	54.94
967.053	54.84
967.479	54.52
967.905	53.85
968.331	54.59
968.756	54.64
969.182	54.29
969.608	54.48
970.034	53.23
970.46	54.68
970.885	54.01
971.311	54.23
971.737	54.13
972.162	54.48
972.588	54.12
973.014	54.31
973.439	54.56
973.865	54.7
974.29	53.89
974.716	54.91
975.141	53.91
975.567	54.04
975.992	53.92
976.417	54.46
976.843	54.08
977.268	53.89
977.693	54.04
978.119	54.53
978.544	53.93
978.969	53.37
979.394	53.59
979.819	54.09
980.244	54.12
980.669	53.66
981.095	53.62
981.52	53.64
981.945	54.3
982.369	53.85
982.794	53.05
983.219	53.97
983.644	54.1
984.069	53.81
984.494	53.55
984.919	53.64
985.343	53.66
985.768	53.18
986.193	53.73
986.618	53.69
987.042	53.12
987.467	53.45
987.891	54.28
988.316	53.68
988.741	54.21
989.165	54.37
989.59	54.64
990.014	53.38
990.438	54.25
990.863	53.64
991.287	54.36
991.712	53.7
992.136	53.59
992.56	54.46
992.984	53.72
993.409	54.05
993.833	54.19
994.257	53.35
994.681	53.11
995.105	54.3
995.529	54.42
995.953	53.97
996.377	55.12
996.801	54.4
997.225	54.36
997.649	54.38
998.073	54.14
998.497	54.03
998.921	54.36
999.345	53.79
999.769	54.4
1000.192	54.72
1000.616	54.28
1001.04	54.8
1001.464	53.9
1001.887	54.41
1002.311	54.21
1002.734	54.46
1003.158	54.19
1003.582	54.21
1004.005	54.07
1004.429	53.9
1004.852	54.25
1005.275	53.66
1005.699	54.13
1006.122	54.56
1006.546	54.19
1006.969	54.4
1007.392	54.61
1007.815	54.77
1008.239	54.28
1008.662	54.61
1009.085	54.27
1009.508	54.77
1009.931	53.79
1010.354	54.09
1010.778	54.57
1011.201	54.79
1011.624	54.06
1012.047	53.15
1012.469	54.33
1012.892	54.88
1013.315	54.52
1013.738	54.1
1014.161	55.3
1014.584	54.16
1015.007	54.46
1015.429	54.12
1015.852	55.13
1016.275	54.65
1016.697	54.8
1017.12	54.5
1017.543	54.76
1017.965	54.13
1018.388	54.08
1018.81	54.53
1019.233	54.29
1019.655	54.29
1020.078	53.92
1020.5	53.82
1020.922	54.41
1021.345	54.08
1021.767	55.06
1022.189	54.14
1022.612	54.63
1023.034	53.83
1023.456	53.91
1023.878	54.85
1024.301	54.09
1024.723	53.83
1025.145	54.78
1025.567	55.57
1025.989	54.41
1026.411	54.18
1026.833	54.72
1027.255	55.19
1027.677	53.38
1028.099	54.02
1028.52	54.64
1028.942	54.31
1029.364	54.78
1029.786	54.04
1030.208	54.51
1030.629	54.36
1031.051	54.01
1031.473	54.3
1031.894	53.9
1032.316	55.07
1032.738	55.16
1033.159	54.83
1033.581	54.11
1034.002	54.1
1034.424	53.86
1034.845	54.46
1035.267	54.48
1035.688	54.42
1036.109	54.05
1036.531	54.4
1036.952	54.48
1037.373	54.6
1037.794	54.85
1038.216	54.66
1038.637	55.83
1039.058	54.06
1039.479	54.9
1039.9	54.44
1040.321	54.22
1040.742	55.26
1041.163	54.76
1041.584	55.26
1042.005	55
1042.426	54.93
1042.847	54.78
1043.268	54.41
1043.689	54.74
1044.11	54.62
1044.53	54.07
1044.951	55.01
1045.372	55.3
1045.793	55.45
1046.213	54.26
1046.634	54.55
1047.055	54.13
1047.475	55.26
1047.896	55.71
1048.316	54.91
1048.737	54.94
1049.157	55.61
1049.578	54.58
1049.998	54.84
1050.419	54.92
1050.839	55.08
1051.259	55.28
1051.68	56.51
1052.1	54.71
1052.52	55.29
1052.94	53.89
1053.361	53.93
1053.781	56.19
1054.201	55.87
1054.621	55.95
1055.041	54.62
1055.461	56.31
1055.881	55.16
1056.301	56.26
1056.721	56.13
1057.141	55.48
1057.561	55.14
1057.981	55.55
1058.401	56.01
1058.82	56.21
1059.24	55.09
1059.66	55.06
1060.08	56.42
1060.499	57.03
1060.919	56.03
1061.339	54.66
1061.758	54.28
1062.178	56.1
1062.598	56.31
1063.017	55.49
1063.437	55.53
1063.856	54.72
1064.276	55.66
1064.695	56.48
1065.114	56
1065.534	57.1
1065.953	55.63
1066.372	58.6
1066.792	55.63
1067.211	55.59
1067.63	56.55
1068.049	56.3
1068.469	55.59
1068.888	55.13
1069.307	55.69
1069.726	57.13
1070.145	54.86
1070.564	55.1
1070.983	54.49
1071.402	57.06
1071.821	54.54
1072.24	55.68
1072.659	56.57
1073.078	56.26
1073.496	57.24
1073.915	56.93
1074.334	54.7
1074.753	56.81
1075.171	56.98
1075.59	57.38
1076.009	56.82
1076.427	55.45
1076.846	56.85
1077.265	55.07
1077.683	57.05
1078.102	55.95
1078.52	55.32
1078.939	55.25
1079.357	55.24
1079.776	56.46
1080.194	56.67
1080.612	57.43
1081.031	55.28
1081.449	57.28
1081.867	61.59
1082.285	54.85
1082.704	55.93
1083.122	54.83
1083.54	55.28
1083.958	56.22
1084.376	56.57
1084.794	55.92
1085.212	57.01
1085.63	58.35
1086.048	56.64
1086.466	56.65
1086.884	57.24
1087.302	57.74
1087.72	55.87
1088.138	57.41
1088.555	54.84
1088.973	55.21
1089.391	58.41
1089.809	56.3
1090.226	57.63
1090.644	57.48
1091.062	56.11
1091.479	55.09
1091.897	55.53
1092.314	56.98
1092.732	56.7
1093.15	56.24
1093.567	58.11
1093.984	56
1094.402	53.74
1094.819	57.5
1095.237	58.17
1095.654	58.22
1096.071	52.76
1096.488	58.94
1096.906	57.9
1097.323	58.43
1097.74	57.21
1098.157	57.09
1098.574	56.09
1098.991	60.6
1099.409	58.47
1099.826	56.41
1100.243	58.7
1100.66	56.46
1101.077	55.69
1101.494	58.92
1101.91	54.62
1102.327	57.5
1102.744	55.74
1103.161	56.04
1103.578	59.05
1103.994	56.72
1104.411	58.13
1104.828	59.71
1105.245	59.51
1105.661	58.53
1106.078	57.48
1106.494	57.23
1106.911	59.45
1107.328	56.86
1107.744	59.15
1108.161	58.24
1108.577	57.77
1108.993	59.1
1109.41	60.06
1109.826	58.42
1110.242	61.4
1110.659	54.82
1111.075	62.19
1111.491	54.26
1111.908	58.78
1112.324	58.04
1112.74	82.65
1113.156	59.01
1113.572	59.41
1113.988	60.79
1114.404	63.75
1114.82	57.98
1115.236	60.45
1115.652	60.59
1116.068	60.88
1116.484	64.94
1116.9	66.62
1117.316	64.42
1117.732	-204.76
1118.147	55.56
1118.563	1166.67
1118.979	-73.33
