Data from JCR0002_Black2_Reflection_00003.txt Node
Date: Wed Jul 22 12:00:49 ACST 2020
User: Stacey Dix
Spectrometer: MAYP113282
Scans to average: 1
Trigger mode: 0
Integration Time (sec): 1.000000E-1
Electric dark correction enabled: true
Boxcar width: 0
XAxis mode: Wavelengths
Number of Pixels in Spectrum: 2068
>>>>>Begin Spectral Data<<<<<
198.791	-714.29
199.266	100
199.74	-500
200.215	25
200.69	145.28
201.164	6.25
201.639	62.11
202.114	77.17
202.588	32.58
203.063	93.13
203.537	84.42
204.012	57.14
204.486	56.58
204.961	56.89
205.435	56.94
205.909	71.81
206.384	64
206.858	82.69
207.332	71.07
207.807	57.65
208.281	35.71
208.755	77.31
209.229	56.42
209.703	44.52
210.177	47.74
210.651	69.32
211.126	62.18
211.6	79.85
212.074	23.03
212.548	59.78
213.021	68.87
213.495	79.39
213.969	75.78
214.443	17.16
214.917	80.37
215.391	47.06
215.864	67.86
216.338	56.31
216.812	60.41
217.286	55.2
217.759	47.25
218.233	55.16
218.706	62.03
219.18	57.79
219.654	31.55
220.127	39.54
220.6	29.48
221.074	34.98
221.547	31.72
222.021	41.83
222.494	46.99
222.967	55.91
223.441	45.14
223.914	34.83
224.387	51.92
224.86	52.12
225.334	51.53
225.807	46.07
226.28	42.21
226.753	46.9
227.226	39.64
227.699	27.7
228.172	39.25
228.645	36.82
229.118	30.77
229.591	34.8
230.064	26.09
230.537	36.2
231.01	25.68
231.482	31.21
231.955	19.64
232.428	25.71
232.901	28.19
233.373	26.59
233.846	27.73
234.319	31.77
234.791	28.58
235.264	32.25
235.736	24.11
236.209	31.54
236.681	23.2
237.154	23.28
237.626	25.87
238.099	24.48
238.571	20.14
239.044	23.13
239.516	23.59
239.988	26.78
240.46	26.17
240.933	23.47
241.405	23.78
241.877	25.84
242.349	20.2
242.821	24.46
243.293	25.77
243.765	22.25
244.237	23.89
244.71	18
245.181	22.88
245.653	21.23
246.125	21.96
246.597	17.23
247.069	18.73
247.541	19.12
248.013	20.78
248.485	19.81
248.956	19.51
249.428	19
249.9	17.46
250.371	23.14
250.843	18.26
251.315	15.85
251.786	18.1
252.258	15.58
252.729	15.59
253.201	17.09
253.672	14.48
254.144	17.04
254.615	17.42
255.086	16.72
255.558	15.37
256.029	16.04
256.5	16.07
256.972	17.56
257.443	16.07
257.914	14.66
258.385	16.45
258.856	15.8
259.327	16.37
259.799	16.78
260.27	16.12
260.741	15.22
261.212	14.25
261.683	16.69
262.154	15.12
262.624	15.25
263.095	16.34
263.566	15.64
264.037	15.18
264.508	15.71
264.979	16.4
265.449	15.27
265.92	15.66
266.391	15.56
266.861	16.17
267.332	14.47
267.803	15.09
268.273	16.41
268.744	14.39
269.214	16.69
269.685	14.15
270.155	13.46
270.626	17.59
271.096	18.04
271.566	16.09
272.037	15.25
272.507	12.87
272.977	14.85
273.448	17.06
273.918	19.08
274.388	16.54
274.858	16
275.328	15.99
275.798	17.8
276.268	16
276.738	18.3
277.208	15.73
277.678	17.81
278.148	17.53
278.618	15.74
279.088	15.48
279.558	17.2
280.028	18.33
280.498	16.84
280.968	13.55
281.437	16.25
281.907	11.4
282.377	14.18
282.847	14.1
283.316	14.61
283.786	14.21
284.255	16.82
284.725	15.57
285.194	16.58
285.664	15.43
286.133	14.46
286.603	15.81
287.072	16.58
287.542	15.26
288.011	11.87
288.48	11.85
288.95	13.82
289.419	14.6
289.888	16.07
290.357	16.44
290.827	13.95
291.296	12.42
291.765	13.39
292.234	12.72
292.703	13.97
293.172	15.83
293.641	13.34
294.11	12.99
294.579	12.44
295.048	13.69
295.517	13.39
295.986	13.38
296.455	12.67
296.923	11.26
297.392	16.11
297.861	15.42
298.33	14.17
298.798	12.57
299.267	15.1
299.736	12.61
300.204	13.86
300.673	14.04
301.141	15.1
301.61	11.46
302.079	13.45
302.547	13.29
303.015	14.09
303.484	11.61
303.952	12.36
304.421	11.7
304.889	13.83
305.357	12.23
305.825	13.13
306.294	11.11
306.762	7.71
307.23	15.2
307.698	12.72
308.166	12.26
308.634	13.86
309.103	11.77
309.571	11.85
310.039	12
310.507	11.73
310.975	14.01
311.442	11.12
311.91	13.3
312.378	11.85
312.846	12.99
313.314	11.08
313.782	10.58
314.249	12.54
314.717	13.79
315.185	12.11
315.652	11.9
316.12	14.36
316.588	12.2
317.055	12.45
317.523	11.47
317.99	14.87
318.458	10.94
318.925	11.45
319.393	10.81
319.86	13.46
320.328	10.63
320.795	10.76
321.262	11.59
321.73	10.58
322.197	14.37
322.664	12.23
323.131	11.55
323.598	11.33
324.066	10.15
324.533	12.11
325	10.76
325.467	13
325.934	11.74
326.401	10.85
326.868	11.94
327.335	10.66
327.802	11.37
328.269	10.3
328.735	13.07
329.202	11.28
329.669	9.4
330.136	12.35
330.603	10.86
331.069	9.68
331.536	11.23
332.003	11.29
332.469	9.67
332.936	10.01
333.402	9.92
333.869	11.53
334.336	10.69
334.802	9.54
335.268	8.59
335.735	10.07
336.201	9.31
336.668	12.11
337.134	11.38
337.6	11.41
338.067	10.31
338.533	12.54
338.999	11.17
339.465	10.14
339.931	9.55
340.398	9.7
340.864	9.95
341.33	9.2
341.796	10.45
342.262	11.69
342.728	10.26
343.194	7.93
343.66	10.02
344.126	8.68
344.592	9.1
345.057	9.51
345.523	10.87
345.989	9.94
346.455	9.99
346.921	8.55
347.386	9.92
347.852	11.2
348.318	9.39
348.783	9.7
349.249	8.71
349.714	8.83
350.18	7.35
350.645	9.92
351.111	9.63
351.576	11.48
352.042	8.41
352.507	10.35
352.973	9.36
353.438	9.07
353.903	8.79
354.369	10.32
354.834	9.63
355.299	9.49
355.764	9.98
356.229	9.06
356.695	8.85
357.16	8.67
357.625	11.64
358.09	9.19
358.555	9.09
359.02	9.78
359.485	10.53
359.95	11.76
360.415	8.58
360.879	11.16
361.344	10.28
361.809	8.43
362.274	8.86
362.739	11.16
363.203	7.93
363.668	8.59
364.133	8.22
364.597	8.31
365.062	8.12
365.527	8.31
365.991	9.26
366.456	11.63
366.92	8.39
367.385	9.26
367.849	9.97
368.314	7.87
368.778	9
369.242	8
369.707	9.69
370.171	8.16
370.635	10.92
371.1	9.31
371.564	8.88
372.028	8.06
372.492	10.4
372.956	6.47
373.42	11.45
373.884	5.6
374.348	8.78
374.812	9.52
375.276	8.38
375.74	6.36
376.204	10.89
376.668	7.01
377.132	8.75
377.596	7.43
378.06	8.95
378.524	6.77
378.987	8.49
379.451	7.55
379.915	8.1
380.378	6.39
380.842	6.54
381.306	8.43
381.769	8.63
382.233	8.1
382.696	7.67
383.16	7.97
383.623	7.87
384.087	8.01
384.55	9.31
385.014	7.35
385.477	8.76
385.94	10.33
386.404	8.17
386.867	9.68
387.33	6.94
387.793	7.21
388.256	7.54
388.72	8.4
389.183	7.29
389.646	8.01
390.109	7.15
390.572	8.78
391.035	6.85
391.498	8.25
391.961	6.29
392.424	8
392.887	7.1
393.35	6.92
393.812	8.34
394.275	7.74
394.738	6.22
395.201	7.35
395.664	6.08
396.126	7.96
396.589	6.39
397.052	5.86
397.514	9.55
397.977	7.87
398.439	6.93
398.902	6.54
399.364	7.76
399.827	9.01
400.289	8.03
400.752	7.71
401.214	7.17
401.676	7.95
402.139	6.44
402.601	7.63
403.063	7.52
403.525	8.18
403.988	7.55
404.45	8.18
404.912	8.3
405.374	6.82
405.836	8.67
406.298	7.64
406.76	8.02
407.222	9.05
407.684	6.56
408.146	7.23
408.608	6.04
409.07	7
409.532	7.15
409.994	6.97
410.456	9.86
410.917	6.56
411.379	5.3
411.841	6.11
412.303	7.46
412.764	7.39
413.226	7.68
413.687	8.12
414.149	7.34
414.611	7.62
415.072	6.25
415.534	6.64
415.995	7.01
416.457	6.27
416.918	6.49
417.379	6.76
417.841	7.13
418.302	7.46
418.763	7.26
419.225	8.36
419.686	7.06
420.147	5.71
420.608	7.22
421.069	6.4
421.53	7.45
421.991	5.78
422.453	7.22
422.914	6.42
423.375	5.4
423.836	7.49
424.297	8.88
424.757	6.55
425.218	7.88
425.679	5.95
426.14	7.36
426.601	8.1
427.062	6.99
427.522	7.86
427.983	9.35
428.444	10.25
428.904	8.69
429.365	7.71
429.826	11.19
430.286	10.73
430.747	11.23
431.207	9.91
431.668	7.87
432.128	10.89
432.589	8.1
433.049	8.74
433.509	6.67
433.97	7.14
434.43	8.12
434.89	8.72
435.351	6.36
435.811	8.63
436.271	8.7
436.731	8.55
437.191	8.56
437.651	6.18
438.112	8.16
438.572	9.34
439.032	9.35
439.492	8.84
439.952	9.8
440.412	7.91
440.871	8.32
441.331	10.5
441.791	7.9
442.251	10.27
442.711	7.92
443.171	5.85
443.63	7.28
444.09	6.84
444.55	8.91
445.009	10.59
445.469	9.39
445.929	8.22
446.388	8.9
446.848	7.89
447.307	9.15
447.767	8.93
448.226	6
448.686	7.8
449.145	6.76
449.604	8.1
450.064	7.31
450.523	7.89
450.982	7.14
451.442	7.56
451.901	7.56
452.36	9.19
452.819	9.01
453.278	7.47
453.737	8.44
454.197	6.68
454.656	7.39
455.115	8.66
455.574	7.18
456.033	7.45
456.492	9.22
456.95	6.35
457.409	9.31
457.868	9.78
458.327	9.46
458.786	6.73
459.245	5.87
459.703	8.03
460.162	9.27
460.621	7.79
461.079	10.19
461.538	5.83
461.997	6.33
462.455	5.79
462.914	7.41
463.372	6.17
463.831	8.21
464.289	7.13
464.748	11.44
465.206	7.86
465.664	8.56
466.123	9.59
466.581	8.22
467.039	7.24
467.497	9.58
467.956	9.33
468.414	7.67
468.872	9.58
469.33	10.6
469.788	6.43
470.246	8.21
470.704	9.06
471.162	7.24
471.62	7.69
472.078	9.75
472.536	9.29
472.994	7.93
473.452	7.94
473.91	8.54
474.368	8.17
474.826	8.31
475.283	9.25
475.741	7.15
476.199	7.15
476.656	9.42
477.114	12.74
477.572	6.72
478.029	9.4
478.487	9.43
478.944	6.5
479.402	8.83
479.859	10.96
480.317	9.09
480.774	6.92
481.232	10.1
481.689	8.94
482.146	9.69
482.604	11.75
483.061	8.15
483.518	10.13
483.975	7.38
484.433	7.26
484.89	7.67
485.347	9.6
485.804	11.61
486.261	8.4
486.718	7.84
487.175	7.76
487.632	11.83
488.089	8.59
488.546	9.63
489.003	5.04
489.46	10.51
489.917	8.17
490.373	8.26
490.83	9.59
491.287	8.3
491.744	8.31
492.2	7.38
492.657	6.5
493.114	6.62
493.57	7.98
494.027	8.43
494.484	9.96
494.94	6.55
495.397	7.89
495.853	9.48
496.31	8.65
496.766	6.53
497.222	10.95
497.679	8.36
498.135	8.52
498.591	7.03
499.048	9.72
499.504	9.03
499.96	9.94
500.416	6.45
500.872	3.38
501.329	7.89
501.785	8.19
502.241	7.81
502.697	7.76
503.153	6.91
503.609	9.49
504.065	7.49
504.521	8.23
504.977	6.81
505.432	8.98
505.888	8.31
506.344	4.83
506.8	6.9
507.256	6.85
507.711	8.23
508.167	7.44
508.623	7.7
509.078	6.95
509.534	10.03
509.99	7.21
510.445	5.48
510.901	6.41
511.356	6.82
511.812	8.55
512.267	8.12
512.722	7.51
513.178	8.23
513.633	7.23
514.089	5.79
514.544	7.03
514.999	5.06
515.454	7.69
515.91	7.82
516.365	7.02
516.82	8.62
517.275	9.1
517.73	11.02
518.185	8.74
518.64	8.36
519.095	6.38
519.55	6.97
520.005	6.81
520.46	7.71
520.915	7.91
521.37	8.27
521.825	6.14
522.28	6.95
522.734	8.91
523.189	6.9
523.644	8.72
524.099	8.14
524.553	6.27
525.008	6.6
525.462	6.66
525.917	7.62
526.372	7.28
526.826	7.05
527.281	5.39
527.735	7.16
528.19	8.86
528.644	6.46
529.098	7.55
529.553	6.8
530.007	6.22
530.461	6.39
530.916	6.61
531.37	7.76
531.824	5.84
532.278	7.81
532.732	8.55
533.186	9.11
533.641	7.36
534.095	6.78
534.549	9.2
535.003	5.79
535.457	6.75
535.911	5.15
536.365	7.34
536.818	5.78
537.272	6.12
537.726	7.01
538.18	9.85
538.634	9.91
539.087	9.04
539.541	6.91
539.995	8.08
540.449	10.3
540.902	6.23
541.356	7.66
541.809	7.46
542.263	7.69
542.716	6.55
543.17	7.51
543.623	7.31
544.077	5.97
544.53	4.94
544.984	6.12
545.437	6.04
545.89	4.58
546.344	9.37
546.797	5.32
547.25	6.48
547.703	6.89
548.157	7
548.61	8.22
549.063	7.4
549.516	7.76
549.969	6.57
550.422	8.31
550.875	6.74
551.328	7.43
551.781	6.45
552.234	7.98
552.687	6.85
553.14	7.06
553.592	6.54
554.045	7.78
554.498	8.13
554.951	8.06
555.404	7.33
555.856	7.6
556.309	6.51
556.762	6.37
557.214	7.82
557.667	6.09
558.119	6.97
558.572	6.11
559.024	6.64
559.477	4.91
559.929	6.4
560.382	5.53
560.834	5.47
561.286	5.64
561.739	5.62
562.191	6.02
562.643	8.28
563.095	8.08
563.548	5.79
564	5.73
564.452	6.99
564.904	6.04
565.356	8.08
565.808	6.52
566.26	5.84
566.712	6.5
567.164	6.28
567.616	5.69
568.068	7.26
568.52	6.91
568.972	7.11
569.424	5.63
569.876	5.87
570.327	6.65
570.779	6.81
571.231	6.82
571.682	6.2
572.134	7.63
572.586	6.84
573.037	6.82
573.489	6.55
573.941	5.26
574.392	6.91
574.844	6.07
575.295	6.03
575.746	5.46
576.198	6.97
576.649	7.5
577.101	7.58
577.552	6.19
578.003	6.07
578.454	5.4
578.906	6.44
579.357	6.15
579.808	5.24
580.259	6.45
580.71	6.48
581.161	5.99
581.612	6.04
582.064	6.03
582.515	6.13
582.965	7.37
583.416	5.63
583.867	5.57
584.318	5.33
584.769	5.57
585.22	5.64
585.671	6.88
586.122	6.46
586.572	5.98
587.023	5.52
587.474	6.84
587.924	5.67
588.375	6
588.826	4.78
589.276	6.17
589.727	5.49
590.177	5.68
590.628	5.46
591.078	5.45
591.529	7.51
591.979	6.61
592.429	6.36
592.88	5.64
593.33	7.48
593.78	5.93
594.231	6.08
594.681	5.45
595.131	5.31
595.581	6.61
596.031	5.76
596.481	6.44
596.932	5.18
597.382	6.66
597.832	6.36
598.282	6.08
598.732	7.29
599.182	6.51
599.632	6.42
600.081	5.92
600.531	7.21
600.981	7.11
601.431	5.49
601.881	6.32
602.33	6.3
602.78	5.62
603.23	7.17
603.679	7.01
604.129	6.72
604.579	6.11
605.028	6.32
605.478	5.72
605.927	6.61
606.377	5.95
606.826	5.66
607.276	6.02
607.725	6.48
608.175	5.32
608.624	5.81
609.073	5.21
609.522	6.51
609.972	7.21
610.421	4.78
610.87	6.22
611.319	4.93
611.768	5.46
612.218	6.43
612.667	6.07
613.116	6.07
613.565	5.73
614.014	4.63
614.463	5.46
614.912	7.24
615.361	5.8
615.81	6.37
616.258	5.72
616.707	6.29
617.156	6.85
617.605	5.97
618.054	6.17
618.502	6.61
618.951	5.95
619.4	6.41
619.848	6.06
620.297	4.92
620.745	6.8
621.194	6.41
621.642	6.02
622.091	4.83
622.539	6.43
622.988	5.86
623.436	5.81
623.885	5.94
624.333	6.95
624.781	5.64
625.23	6.77
625.678	6.91
626.126	6.45
626.574	7.14
627.022	5.42
627.471	5.74
627.919	5.52
628.367	5.46
628.815	5.71
629.263	5.72
629.711	5.77
630.159	5.8
630.607	6.16
631.055	5.68
631.503	5.72
631.95	4.9
632.398	5.57
632.846	5.92
633.294	6.53
633.742	5.85
634.189	5.33
634.637	6.59
635.085	5.61
635.532	6.07
635.98	5.14
636.427	5.55
636.875	6.09
637.323	5.69
637.77	5.88
638.217	5.56
638.665	5.97
639.112	5.07
639.56	5.54
640.007	5.85
640.454	5.56
640.902	5.63
641.349	5.5
641.796	5.28
642.243	5.78
642.69	6.09
643.138	6.64
643.585	5.49
644.032	5.82
644.479	6.41
644.926	5.82
645.373	4.96
645.82	6.02
646.267	6.45
646.714	5.53
647.161	5.69
647.607	4.97
648.054	4.63
648.501	5.48
648.948	5.95
649.395	5.55
649.841	6.44
650.288	5.44
650.735	5.79
651.181	5.51
651.628	5.05
652.075	5.41
652.521	5.81
652.968	5.55
653.414	5.64
653.861	5.13
654.307	5.88
654.753	5.14
655.2	5.72
655.646	5.89
656.092	5.77
656.539	6.03
656.985	6.15
657.431	5.54
657.877	5.55
658.324	6.42
658.77	4.78
659.216	5.33
659.662	6.06
660.108	5.64
660.554	5.79
661	4.93
661.446	5.21
661.892	6
662.338	5.22
662.784	6.45
663.23	5.58
663.675	5.44
664.121	5.98
664.567	5.84
665.013	5.65
665.458	5.51
665.904	6.47
666.35	5.53
666.795	5.69
667.241	6.04
667.687	5.78
668.132	5.22
668.578	5.48
669.023	4.5
669.469	5.34
669.914	5.88
670.359	5.77
670.805	6.59
671.25	5.74
671.695	5.59
672.141	5.28
672.586	5.2
673.031	6.18
673.476	5.41
673.922	5.77
674.367	4.9
674.812	6.26
675.257	5.83
675.702	6.18
676.147	5.19
676.592	5.25
677.037	5.53
677.482	5.01
677.927	5.7
678.372	5.86
678.817	5.69
679.261	6.22
679.706	5.24
680.151	5.56
680.596	5.21
681.04	6.28
681.485	5.45
681.93	5.9
682.374	5.33
682.819	5.06
683.264	5.81
683.708	6.28
684.153	5.6
684.597	6.18
685.042	5.79
685.486	5.79
685.93	5.97
686.375	5.69
686.819	5.81
687.263	5.94
687.708	6.36
688.152	5.99
688.596	5.32
689.04	5.96
689.485	5.85
689.929	5.83
690.373	5.2
690.817	5.51
691.261	5.96
691.705	5.74
692.149	5.79
692.593	5.61
693.037	5.49
693.481	5.26
693.925	5.53
694.369	5.26
694.812	5.44
695.256	5.81
695.7	4.67
696.144	5.85
696.587	5.82
697.031	5.77
697.475	5.57
697.918	5.88
698.362	5.63
698.806	5.67
699.249	5.63
699.693	5.88
700.136	6.12
700.58	5.92
701.023	5.94
701.466	5.86
701.91	6.02
702.353	5.83
702.796	5.56
703.24	5.64
703.683	5.75
704.126	5.85
704.569	5.82
705.013	5.62
705.456	6.55
705.899	5.39
706.342	6.07
706.785	5.71
707.228	5.87
707.671	5.59
708.114	5.91
708.557	5.16
709	5.46
709.443	5.51
709.886	5.95
710.328	5.95
710.771	5.75
711.214	5.93
711.657	5.65
712.099	5.58
712.542	5.7
712.985	6.35
713.427	5.27
713.87	5.95
714.313	5.47
714.755	5.71
715.198	6.34
715.64	5.29
716.083	5.95
716.525	5.22
716.967	5.82
717.41	5.98
717.852	5.26
718.295	6.19
718.737	6.01
719.179	6.09
719.621	6.06
720.063	5.66
720.506	5.75
720.948	6.8
721.39	5.83
721.832	6.18
722.274	6.14
722.716	5.68
723.158	6.54
723.6	6.39
724.042	6.03
724.484	6.28
724.926	6.29
725.368	6.46
725.81	5.63
726.251	6.4
726.693	5.54
727.135	6.3
727.577	6.01
728.018	6.36
728.46	6.27
728.902	6.13
729.343	6.54
729.785	7.15
730.226	6.53
730.668	5.67
731.109	6.1
731.551	5.78
731.992	6.07
732.434	6.55
732.875	5.73
733.316	6.09
733.758	5.48
734.199	6.09
734.64	6.56
735.081	5.54
735.523	6.25
735.964	6.62
736.405	6.56
736.846	5.94
737.287	6.03
737.728	5.75
738.169	5.99
738.61	6.01
739.051	5.81
739.492	6.2
739.933	5.89
740.374	5.72
740.815	6.02
741.256	6.44
741.696	5.78
742.137	6.35
742.578	6.04
743.019	6.56
743.459	6.43
743.9	6.24
744.341	5.86
744.781	6.14
745.222	6.28
745.662	6.54
746.103	6.45
746.543	6.07
746.984	6.22
747.424	6.4
747.865	5.86
748.305	6.55
748.745	5.96
749.186	6.28
749.626	6.46
750.066	6.38
750.506	6.03
750.947	6.74
751.387	6.36
751.827	6.37
752.267	6.19
752.707	6.47
753.147	6.18
753.587	5.98
754.027	6.34
754.467	6.08
754.907	6.54
755.347	6.09
755.787	6.72
756.227	5.93
756.667	6.2
757.107	5.52
757.546	6.37
757.986	6.72
758.426	6.45
758.865	6.81
759.305	6.24
759.745	5.96
760.184	6.93
760.624	5.81
761.063	6.61
761.503	6.76
761.943	6.16
762.382	6.08
762.821	6.54
763.261	5.85
763.7	7.05
764.14	6.85
764.579	6.49
765.018	5.94
765.457	6.49
765.897	6.15
766.336	6.46
766.775	6.46
767.214	6.59
767.653	6.35
768.092	6.26
768.531	6.94
768.97	6.05
769.409	6.51
769.848	6.44
770.287	6.96
770.726	5.92
771.165	6.02
771.604	6.21
772.043	6.7
772.482	6.26
772.92	6.77
773.359	6.28
773.798	6.65
774.237	5.91
774.675	6.44
775.114	6.65
775.553	6.85
775.991	6.53
776.43	6.54
776.868	6.07
777.307	6.4
777.745	6.35
778.184	6.41
778.622	6.76
779.06	6.2
779.499	6.81
779.937	6.62
780.375	6.66
780.814	6.4
781.252	7.29
781.69	5.95
782.128	7.12
782.566	6.29
783.004	6.93
783.443	6.4
783.881	6.81
784.319	6.5
784.757	7.02
785.195	6.33
785.633	6.65
786.071	6.56
786.508	6.58
786.946	6.97
787.384	7.16
787.822	6.43
788.26	6.34
788.697	6.96
789.135	7.47
789.573	6.83
790.011	6.56
790.448	6.33
790.886	6.79
791.323	6.74
791.761	6.7
792.198	6.55
792.636	7.53
793.073	6.75
793.511	6.81
793.948	7.47
794.386	6.75
794.823	7.16
795.26	6.98
795.698	7.23
796.135	6.96
796.572	6.74
797.009	7.01
797.446	6.64
797.884	6.89
798.321	6.75
798.758	6.54
799.195	7
799.632	6.8
800.069	7.07
800.506	7.15
800.943	6.65
801.38	6.81
801.817	6.7
802.254	7.38
802.69	6.67
803.127	7.49
803.564	6.72
804.001	7.05
804.438	7.06
804.874	6.7
805.311	7.02
805.748	6.96
806.184	7.47
806.621	6.85
807.057	7.08
807.494	7.19
807.93	7.06
808.367	7.29
808.803	7.13
809.24	7.33
809.676	7.76
810.112	7.13
810.549	6.59
810.985	6.81
811.421	7.56
811.857	6.97
812.294	6.93
812.73	6.89
813.166	6.88
813.602	7.52
814.038	7.1
814.474	6.89
814.91	7.2
815.346	7.49
815.782	7.38
816.218	7.36
816.654	7.22
817.09	7.52
817.526	7.05
817.962	7.29
818.398	7.35
818.833	7.28
819.269	7.45
819.705	7.38
820.141	7.06
820.576	7.37
821.012	6.87
821.447	7.88
821.883	7.5
822.319	6.98
822.754	7.57
823.19	7.49
823.625	7.01
824.061	7.6
824.496	7.56
824.931	7.71
825.367	7.44
825.802	7.25
826.237	6.93
826.673	7.63
827.108	7.68
827.543	7.17
827.978	7.71
828.413	7.74
828.849	7.66
829.284	7.59
829.719	7.74
830.154	7.42
830.589	7.54
831.024	7.97
831.459	7.74
831.894	7.58
832.329	7.32
832.763	7.68
833.198	7.86
833.633	7.67
834.068	7.12
834.503	8.15
834.937	7.68
835.372	7.84
835.807	7.99
836.241	7.56
836.676	7.51
837.111	7.73
837.545	7.72
837.98	7.71
838.414	7.51
838.849	7.47
839.283	7.9
839.717	7.89
840.152	7.4
840.586	8.06
841.021	8.03
841.455	7.97
841.889	7.96
842.323	7.45
842.758	7.94
843.192	7.96
843.626	8
844.06	7.51
844.494	7.91
844.928	7.93
845.362	7.94
845.796	7.74
846.23	8.63
846.664	8.06
847.098	8.25
847.532	8.34
847.966	8.3
848.4	7.66
848.834	7.7
849.267	7.8
849.701	8.08
850.135	7.91
850.569	7.77
851.002	8.88
851.436	8.04
851.87	8.21
852.303	8.2
852.737	8.28
853.17	8.16
853.604	8.14
854.037	8.02
854.471	8.11
854.904	8.24
855.337	8.13
855.771	8.5
856.204	7.81
856.637	8.36
857.071	7.9
857.504	8.42
857.937	8.04
858.37	8.33
858.804	8.93
859.237	8.43
859.67	8.87
860.103	8.37
860.536	8.11
860.969	8.46
861.402	8.35
861.835	8.91
862.268	8.88
862.701	8.71
863.134	8.68
863.566	8.51
863.999	8.47
864.432	8.39
864.865	8.6
865.298	8.71
865.73	8.2
866.163	8.3
866.596	8.67
867.028	8.45
867.461	8.77
867.893	8.72
868.326	9.09
868.758	8.51
869.191	8.69
869.623	8.84
870.056	8.48
870.488	8.6
870.92	8.78
871.353	8.75
871.785	8.76
872.217	8.55
872.65	8.7
873.082	8.67
873.514	8.96
873.946	8.59
874.378	8.78
874.81	8.72
875.243	8.97
875.675	9.12
876.107	8.89
876.539	8.85
876.971	8.71
877.403	8.78
877.834	9.04
878.266	8.95
878.698	8.88
879.13	8.97
879.562	8.88
879.994	8.75
880.425	9.28
880.857	8.66
881.289	9.2
881.72	9.21
882.152	9.11
882.584	8.92
883.015	9.35
883.447	8.85
883.878	9.18
884.31	9.23
884.741	9.08
885.173	9.35
885.604	9.24
886.035	9.02
886.467	9.53
886.898	9.47
887.329	9.35
887.76	9.37
888.192	9.28
888.623	9.41
889.054	9.12
889.485	9.15
889.916	9.7
890.347	9.43
890.778	9.45
891.209	8.96
891.64	9.35
892.071	9.59
892.502	9.72
892.933	9.51
893.364	9.5
893.795	9.6
894.226	9.32
894.657	9.64
895.087	9.57
895.518	9.61
895.949	9.6
896.38	9.4
896.81	9.6
897.241	9.71
897.671	9.4
898.102	9.96
898.533	9.63
898.963	9.64
899.394	9.49
899.824	9.88
900.254	9.49
900.685	10.06
901.115	9.75
901.546	9.83
901.976	9.49
902.406	9.73
902.836	9.65
903.267	9.83
903.697	9.54
904.127	9.74
904.557	9.63
904.987	9.98
905.417	9.44
905.847	9.79
906.277	9.59
906.707	10.04
907.137	9.78
907.567	10.12
907.997	9.74
908.427	10.06
908.857	9.96
909.287	10
909.717	9.83
910.146	9.94
910.576	10.13
911.006	10.02
911.436	10.38
911.865	10.13
912.295	10.1
912.724	10.14
913.154	10.17
913.584	10.23
914.013	9.97
914.443	10.43
914.872	10.39
915.302	10.49
915.731	10.14
916.16	10.25
916.59	10.28
917.019	10.54
917.448	10.38
917.878	10.75
918.307	10.32
918.736	10.4
919.165	10.43
919.594	10.4
920.023	10.29
920.452	10.65
920.882	10.49
921.311	10.59
921.74	10.3
922.169	10.62
922.597	10.45
923.026	10.77
923.455	10.58
923.884	10.47
924.313	10.85
924.742	10.62
925.171	10.39
925.599	10.7
926.028	10.35
926.457	11.02
926.885	10.62
927.314	10.65
927.743	10.78
928.171	10.67
928.6	10.67
929.028	10.78
929.457	10.8
929.885	10.84
930.314	10.55
930.742	10.91
931.17	11.3
931.599	11.04
932.027	10.89
932.455	11.04
932.884	11
933.312	11.43
933.74	10.66
934.168	11.35
934.596	11.05
935.025	10.65
935.453	11.54
935.881	10.96
936.309	11.23
936.737	11.18
937.165	11.76
937.593	11.13
938.021	12.08
938.449	11.34
938.876	11.75
939.304	11.54
939.732	11.47
940.16	11.58
940.588	11.75
941.015	11.33
941.443	11.27
941.871	11.31
942.298	12.09
942.726	11.07
943.154	11.45
943.581	11.56
944.009	11.69
944.436	12.04
944.864	11.8
945.291	11.73
945.718	11.84
946.146	11.73
946.573	11.84
947.001	11.95
947.428	11.63
947.855	12.01
948.282	11.74
948.71	12.15
949.137	11.51
949.564	11.99
949.991	12.16
950.418	11.87
950.845	11.89
951.272	11.78
951.699	11.82
952.126	12.12
952.553	11.65
952.98	11.82
953.407	11.51
953.834	12.19
954.261	11.98
954.688	12.09
955.114	12.01
955.541	12.26
955.968	11.63
956.395	12.02
956.821	11.94
957.248	12.03
957.674	11.93
958.101	12.15
958.528	11.89
958.954	12.18
959.381	12.38
959.807	12
960.234	12.12
960.66	12.09
961.086	12.14
961.513	12.03
961.939	12.4
962.365	12.22
962.792	12.46
963.218	12.25
963.644	11.94
964.07	12.23
964.496	12.22
964.923	12.67
965.349	12.23
965.775	12.31
966.201	12.88
966.627	12.77
967.053	12.64
967.479	12.54
967.905	12.61
968.331	12.55
968.756	12.09
969.182	12.93
969.608	12.24
970.034	12.76
970.46	12.67
970.885	12.56
971.311	12.75
971.737	12.56
972.162	12.61
972.588	12.75
973.014	12.44
973.439	12.72
973.865	12.65
974.29	12.95
974.716	12.97
975.141	12.86
975.567	13
975.992	12.86
976.417	12.87
976.843	12.8
977.268	12.77
977.693	13.22
978.119	12.88
978.544	12.78
978.969	13.23
979.394	12.9
979.819	13.21
980.244	12.92
980.669	12.81
981.095	12.74
981.52	13.11
981.945	12.97
982.369	13.25
982.794	13.09
983.219	13.24
983.644	13.4
984.069	13.31
984.494	13.34
984.919	13.29
985.343	13.05
985.768	13.31
986.193	13.65
986.618	13.5
987.042	13.81
987.467	13.49
987.891	13.41
988.316	13.31
988.741	13.46
989.165	13.56
989.59	13.57
990.014	13.52
990.438	13.59
990.863	13.55
991.287	13.68
991.712	13.56
992.136	13.51
992.56	13.38
992.984	13.46
993.409	13.71
993.833	13.75
994.257	13.67
994.681	13.66
995.105	13.91
995.529	13.67
995.953	13.82
996.377	13.95
996.801	14
997.225	14.11
997.649	13.97
998.073	13.84
998.497	14.19
998.921	13.95
999.345	13.92
999.769	13.57
1000.192	14.24
1000.616	14.2
1001.04	14.23
1001.464	14.36
1001.887	14.29
1002.311	14
1002.734	14.28
1003.158	14.4
1003.582	14.25
1004.005	14.54
1004.429	14.4
1004.852	14.67
1005.275	14.2
1005.699	14.42
1006.122	14.39
1006.546	14.56
1006.969	14.6
1007.392	14.39
1007.815	14.61
1008.239	14.39
1008.662	14.38
1009.085	14.73
1009.508	14.86
1009.931	14.78
1010.354	14.62
1010.778	14.49
1011.201	15.11
1011.624	14.82
1012.047	15.21
1012.469	14.88
1012.892	14.91
1013.315	15.29
1013.738	15.19
1014.161	15.15
1014.584	14.68
1015.007	15.05
1015.429	15
1015.852	14.83
1016.275	15.15
1016.697	14.85
1017.12	15.04
1017.543	15.04
1017.965	15.19
1018.388	14.91
1018.81	15.03
1019.233	15.46
1019.655	14.65
1020.078	15.36
1020.5	15.21
1020.922	15.42
1021.345	14.89
1021.767	15.23
1022.189	15.22
1022.612	15.53
1023.034	15.48
1023.456	15.89
1023.878	15.23
1024.301	15.64
1024.723	15.45
1025.145	14.6
1025.567	16.11
1025.989	15.21
1026.411	15.49
1026.833	15.56
1027.255	15.51
1027.677	15.73
1028.099	15.47
1028.52	15.81
1028.942	15.64
1029.364	15.75
1029.786	15.7
1030.208	15.58
1030.629	15.4
1031.051	15.8
1031.473	16.3
1031.894	15.79
1032.316	15.98
1032.738	16.3
1033.159	15.72
1033.581	16.15
1034.002	16.44
1034.424	16.47
1034.845	16
1035.267	15.74
1035.688	16.65
1036.109	16.09
1036.531	16.12
1036.952	16.28
1037.373	16.07
1037.794	16.11
1038.216	16.53
1038.637	16.24
1039.058	16.18
1039.479	16.34
1039.9	16.5
1040.321	16.88
1040.742	16.38
1041.163	16.24
1041.584	16.33
1042.005	16.65
1042.426	16.86
1042.847	16.36
1043.268	17.05
1043.689	15.85
1044.11	16.57
1044.53	16.78
1044.951	16.37
1045.372	16.86
1045.793	17.23
1046.213	17.05
1046.634	17.11
1047.055	17.08
1047.475	16.85
1047.896	17.49
1048.316	17.01
1048.737	17.37
1049.157	16.65
1049.578	17.05
1049.998	17.33
1050.419	17.03
1050.839	17.25
1051.259	17.26
1051.68	17.16
1052.1	17.24
1052.52	17.7
1052.94	17.02
1053.361	17.38
1053.781	17.01
1054.201	16.84
1054.621	17.37
1055.041	17.23
1055.461	17.47
1055.881	17.4
1056.301	16.9
1056.721	17.73
1057.141	17.48
1057.561	17.23
1057.981	17.23
1058.401	18.02
1058.82	17.71
1059.24	17.33
1059.66	17.27
1060.08	18.15
1060.499	17.95
1060.919	17.89
1061.339	17.8
1061.758	17.72
1062.178	18.64
1062.598	17.72
1063.017	17.62
1063.437	17.71
1063.856	17.97
1064.276	18.51
1064.695	17.69
1065.114	17.72
1065.534	17.63
1065.953	18.56
1066.372	18.04
1066.792	17.77
1067.211	18.69
1067.63	18.3
1068.049	19.07
1068.469	18.03
1068.888	17.84
1069.307	17.66
1069.726	19.05
1070.145	17.66
1070.564	19.27
1070.983	17.92
1071.402	18.4
1071.821	17.95
1072.24	19.06
1072.659	18.38
1073.078	18.82
1073.496	18.61
1073.915	19.41
1074.334	17.84
1074.753	18.69
1075.171	18.45
1075.59	18.71
1076.009	18.27
1076.427	18.53
1076.846	18.94
1077.265	19.51
1077.683	19.49
1078.102	18.87
1078.52	19.33
1078.939	18.87
1079.357	19.93
1079.776	19.21
1080.194	18.32
1080.612	20.46
1081.031	19.53
1081.449	17.74
1081.867	20.62
1082.285	18.94
1082.704	19.63
1083.122	19.4
1083.54	20.35
1083.958	20.19
1084.376	19.18
1084.794	19.47
1085.212	18.99
1085.63	20.51
1086.048	19.04
1086.466	20.02
1086.884	20.4
1087.302	18.93
1087.72	18.94
1088.138	19.77
1088.555	20.63
1088.973	19.5
1089.391	20.34
1089.809	21.33
1090.226	20.46
1090.644	19.92
1091.062	20.84
1091.479	20.6
1091.897	20.12
1092.314	21.14
1092.732	19.02
1093.15	19.75
1093.567	20.09
1093.984	19.73
1094.402	20.36
1094.819	20.23
1095.237	21.37
1095.654	22.18
1096.071	20.53
1096.488	21.22
1096.906	21.01
1097.323	20.13
1097.74	19.97
1098.157	19.71
1098.574	20.29
1098.991	21.26
1099.409	22.95
1099.826	22.36
1100.243	20.04
1100.66	20.98
1101.077	23.41
1101.494	21.1
1101.91	20.66
1102.327	22.02
1102.744	23.4
1103.161	21.7
1103.578	20.87
1103.994	20.71
1104.411	19.46
1104.828	19.82
1105.245	24.14
1105.661	22.29
1106.078	19.54
1106.494	23.84
1106.911	22.14
1107.328	20.33
1107.744	22.71
1108.161	22.22
1108.577	22.26
1108.993	23.73
1109.41	22.85
1109.826	23.67
1110.242	22.18
1110.659	24.61
1111.075	20.42
1111.491	22.5
1111.908	23.41
1112.324	25.5
1112.74	50.06
1113.156	20.35
1113.572	23.77
1113.988	23.26
1114.404	27.82
1114.82	23.46
1115.236	26.49
1115.652	26.32
1116.068	26.6
1116.484	17.41
1116.9	25.61
1117.316	30.6
1117.732	-800
1118.147	-350
1118.563	100
1118.979	169.23
