Data from JCR0027_White2_Reflection_00003.txt Node
Date: Fri Jul 31 12:29:39 ACST 2020
User: Stacey Dix
Spectrometer: MAYP113282
Scans to average: 1
Trigger mode: 0
Integration Time (sec): 1.000000E-1
Electric dark correction enabled: true
Boxcar width: 0
XAxis mode: Wavelengths
Number of Pixels in Spectrum: 2068
>>>>>Begin Spectral Data<<<<<
198.791	181.82
199.266	137.5
199.74	130
200.215	-350
200.69	31.47
201.164	48.36
201.639	63.79
202.114	35.49
202.588	34.88
203.063	39.04
203.537	27.2
204.012	36.84
204.486	56.3
204.961	48.64
205.435	33.11
205.909	49.84
206.384	41.81
206.858	28.31
207.332	49.43
207.807	28.73
208.281	57.43
208.755	23.31
209.229	38.12
209.703	48.75
210.177	34.56
210.651	37.16
211.126	26.06
211.6	19.69
212.074	32.89
212.548	36.41
213.021	15.54
213.495	37.63
213.969	33.7
214.443	31.57
214.917	26.86
215.391	46.84
215.864	19.33
216.338	23.52
216.812	27.13
217.286	27.68
217.759	28.46
218.233	24.35
218.706	15.4
219.18	16.79
219.654	19.65
220.127	18.66
220.6	8.38
221.074	26.24
221.547	20.91
222.021	20.61
222.494	17.83
222.967	16.48
223.441	14.9
223.914	20.57
224.387	13.48
224.86	17.84
225.334	17.65
225.807	16.21
226.28	11.29
226.753	14.2
227.226	11.74
227.699	18.1
228.172	12.45
228.645	11.95
229.118	10.47
229.591	12.59
230.064	11.07
230.537	10.31
231.01	11.94
231.482	8.89
231.955	10.19
232.428	10.77
232.901	10.3
233.373	9.2
233.846	11.24
234.319	10.04
234.791	10.06
235.264	9.12
235.736	9.87
236.209	10.96
236.681	9.98
237.154	10.35
237.626	9.24
238.099	11.08
238.571	8.92
239.044	9.64
239.516	8.81
239.988	7.59
240.46	8.21
240.933	7.55
241.405	9.45
241.877	9.22
242.349	9.67
242.821	9.92
243.293	9.68
243.765	8.97
244.237	10.67
244.71	9.21
245.181	7.45
245.653	9.25
246.125	9.47
246.597	9.19
247.069	8.44
247.541	8.89
248.013	8.73
248.485	9.24
248.956	8.49
249.428	8.15
249.9	7.26
250.371	7.12
250.843	7.56
251.315	7.78
251.786	7.02
252.258	7.12
252.729	8.39
253.201	7.2
253.672	6.6
254.144	7.67
254.615	6.86
255.086	7.92
255.558	8.18
256.029	7.43
256.5	7.79
256.972	6.86
257.443	7.22
257.914	7.21
258.385	6.81
258.856	7.28
259.327	7.29
259.799	7.1
260.27	7.3
260.741	6.49
261.212	6.29
261.683	6.91
262.154	7.24
262.624	6.69
263.095	7.48
263.566	6.77
264.037	6.87
264.508	6.5
264.979	6.9
265.449	6.48
265.92	6.99
266.391	6.86
266.861	6.81
267.332	6.8
267.803	6.48
268.273	7.15
268.744	6.59
269.214	7.29
269.685	6.73
270.155	6.76
270.626	6.94
271.096	6.31
271.566	7.84
272.037	6.72
272.507	7.12
272.977	7.75
273.448	7.04
273.918	6.99
274.388	6.21
274.858	6.93
275.328	7.43
275.798	7.18
276.268	6.46
276.738	6.64
277.208	6.5
277.678	6.23
278.148	7.56
278.618	6.2
279.088	6.17
279.558	6.78
280.028	6.64
280.498	6.61
280.968	6.77
281.437	5.81
281.907	6.26
282.377	6.76
282.847	6.5
283.316	5.96
283.786	6.93
284.255	6.92
284.725	6.15
285.194	6.85
285.664	6.49
286.133	6.04
286.603	5.57
287.072	6.84
287.542	6.16
288.011	6.24
288.48	6.26
288.95	6.04
289.419	6.62
289.888	7.04
290.357	6.41
290.827	6.65
291.296	6.12
291.765	5.49
292.234	6.49
292.703	6.27
293.172	7.35
293.641	6.43
294.11	6.43
294.579	6.38
295.048	6.79
295.517	6.49
295.986	7.58
296.455	6.94
296.923	7.18
297.392	6.28
297.861	6.4
298.33	6.97
298.798	7.02
299.267	7.72
299.736	7.23
300.204	7.55
300.673	7.49
301.141	6.44
301.61	6.6
302.079	5.83
302.547	6.62
303.015	6.52
303.484	6.94
303.952	7.14
304.421	7.16
304.889	6.96
305.357	6.84
305.825	6.85
306.294	7.12
306.762	6.51
307.23	7.5
307.698	7.83
308.166	7.21
308.634	7.19
309.103	7.31
309.571	7.49
310.039	7.34
310.507	7.73
310.975	7
311.442	7.5
311.91	6.86
312.378	8.14
312.846	6.98
313.314	7.75
313.782	6.27
314.249	7.03
314.717	7.43
315.185	6.78
315.652	7.34
316.12	7.36
316.588	6.6
317.055	7.93
317.523	7.9
317.99	8.37
318.458	7.45
318.925	7.87
319.393	7.14
319.86	8.09
320.328	8.18
320.795	8.04
321.262	8.52
321.73	6.53
322.197	8.56
322.664	8.5
323.131	9.07
323.598	8.81
324.066	8.31
324.533	9.24
325	10.31
325.467	9.39
325.934	9.13
326.401	9.99
326.868	9.78
327.335	11.16
327.802	11.97
328.269	11.96
328.735	10.84
329.202	12.8
329.669	12.32
330.136	13.04
330.603	13.67
331.069	13.66
331.536	15.36
332.003	14.66
332.469	14.15
332.936	14.18
333.402	15.29
333.869	16.13
334.336	16.13
334.802	14.69
335.268	14.31
335.735	15.75
336.201	16.03
336.668	15.96
337.134	15.52
337.6	15.26
338.067	14.85
338.533	16.38
338.999	15.8
339.465	16.54
339.931	16.18
340.398	16.69
340.864	15.74
341.33	17.17
341.796	16.94
342.262	18.03
342.728	15.26
343.194	16.14
343.66	16.6
344.126	17.14
344.592	16.35
345.057	15.48
345.523	16.41
345.989	16.74
346.455	16.92
346.921	16.19
347.386	16.98
347.852	16.88
348.318	16.57
348.783	16.1
349.249	16.35
349.714	16.31
350.18	16.74
350.645	16.69
351.111	16.34
351.576	16.3
352.042	16.42
352.507	17.9
352.973	16.3
353.438	17.85
353.903	17.91
354.369	15.96
354.834	15.82
355.299	16.23
355.764	15.96
356.229	18.34
356.695	17
357.16	16.21
357.625	18.2
358.09	16.09
358.555	17.13
359.02	16.84
359.485	15.4
359.95	16.13
360.415	16.18
360.879	17.19
361.344	17.44
361.809	17.01
362.274	16.66
362.739	17.23
363.203	16.73
363.668	16.61
364.133	17.97
364.597	17.41
365.062	17.06
365.527	17.02
365.991	17.21
366.456	18.11
366.92	17.5
367.385	16.82
367.849	18.11
368.314	17.28
368.778	16.88
369.242	18
369.707	18.14
370.171	18.21
370.635	18.1
371.1	16.54
371.564	17.86
372.028	18.27
372.492	16.58
372.956	16.98
373.42	17.82
373.884	17.37
374.348	17.59
374.812	18.32
375.276	18.02
375.74	18.08
376.204	17.34
376.668	17.12
377.132	17.79
377.596	17.91
378.06	18.54
378.524	17.82
378.987	18.81
379.451	17
379.915	17.8
380.378	17.47
380.842	18.32
381.306	18.06
381.769	19.41
382.233	18.98
382.696	17.96
383.16	17.56
383.623	18.06
384.087	18.04
384.55	18.72
385.014	17.42
385.477	19.41
385.94	18.83
386.404	18.44
386.867	18.92
387.33	17.87
387.793	19.29
388.256	19.21
388.72	20.1
389.183	18.74
389.646	18.62
390.109	20.04
390.572	20.47
391.035	18.31
391.498	17.56
391.961	19.37
392.424	18.84
392.887	18.93
393.35	19.44
393.812	19.24
394.275	18.71
394.738	19.15
395.201	19.93
395.664	19.08
396.126	19.17
396.589	19.65
397.052	19.68
397.514	19.51
397.977	20.29
398.439	19.94
398.902	19.43
399.364	19.87
399.827	18.92
400.289	19.5
400.752	18.82
401.214	20.22
401.676	19.24
402.139	19.02
402.601	18.86
403.063	19.52
403.525	19.5
403.988	21.02
404.45	20.04
404.912	20.57
405.374	18.8
405.836	20.21
406.298	20.3
406.76	19.53
407.222	19.39
407.684	19.41
408.146	21.23
408.608	19.96
409.07	20.4
409.532	19.02
409.994	20.09
410.456	20.39
410.917	20.04
411.379	19.73
411.841	20.13
412.303	19.88
412.764	19.83
413.226	19
413.687	19.28
414.149	21.29
414.611	20.55
415.072	20.17
415.534	20.53
415.995	20.54
416.457	18.64
416.918	20.33
417.379	20.08
417.841	20.22
418.302	20.15
418.763	19.57
419.225	21.52
419.686	20.7
420.147	20.11
420.608	21.22
421.069	20.82
421.53	20.42
421.991	19.98
422.453	20.62
422.914	21.85
423.375	19.91
423.836	21.2
424.297	20.26
424.757	19.82
425.218	19.81
425.679	21.82
426.14	20.69
426.601	20.95
427.062	21.11
427.522	18.44
427.983	21.65
428.444	20.78
428.904	20.46
429.365	20.85
429.826	21.19
430.286	19.54
430.747	21.81
431.207	22.8
431.668	21.27
432.128	21.91
432.589	20.56
433.049	20.21
433.509	22.2
433.97	20.84
434.43	21.13
434.89	19.51
435.351	20.42
435.811	21.85
436.271	21.41
436.731	21.94
437.191	21.63
437.651	22.58
438.112	22.32
438.572	19.68
439.032	22.66
439.492	21.46
439.952	20.84
440.412	22.55
440.871	23.31
441.331	22.63
441.791	21.33
442.251	20.77
442.711	20.4
443.171	22.84
443.63	21.75
444.09	23.37
444.55	22.49
445.009	23.23
445.469	20
445.929	22.34
446.388	20.77
446.848	24.27
447.307	23.2
447.767	21.63
448.226	23.14
448.686	23.08
449.145	18.99
449.604	21.36
450.064	22.56
450.523	23.81
450.982	21.26
451.442	22.89
451.901	22.52
452.36	21.75
452.819	22.07
453.278	21.28
453.737	21.76
454.197	22.46
454.656	22.33
455.115	21.48
455.574	21.89
456.033	23.22
456.492	22.1
456.95	21.28
457.409	24.51
457.868	21.04
458.327	22.23
458.786	21.14
459.245	24.15
459.703	21.93
460.162	23.71
460.621	21.4
461.079	22.78
461.538	21.47
461.997	22.42
462.455	21.13
462.914	21.34
463.372	21.2
463.831	20.71
464.289	21.92
464.748	22.55
465.206	22.46
465.664	22.82
466.123	22.47
466.581	22.26
467.039	24.89
467.497	23.17
467.956	22.91
468.414	23.93
468.872	21.56
469.33	23.24
469.788	21.03
470.246	23.69
470.704	21.22
471.162	20.72
471.62	24.41
472.078	21.43
472.536	22.2
472.994	22.77
473.452	20.74
473.91	22.61
474.368	21.43
474.826	23.14
475.283	22.18
475.741	21.93
476.199	24.31
476.656	22.37
477.114	20.83
477.572	23.11
478.029	23.6
478.487	21.54
478.944	23.29
479.402	23.48
479.859	21.11
480.317	21.56
480.774	23.38
481.232	23.01
481.689	22.48
482.146	23.9
482.604	21.59
483.061	22.84
483.518	22.68
483.975	21
484.433	22.19
484.89	22.99
485.347	22.29
485.804	22.07
486.261	22.1
486.718	23.32
487.175	21.55
487.632	20.82
488.089	22.41
488.546	22.9
489.003	24.62
489.46	23.42
489.917	23.03
490.373	24.57
490.83	24.94
491.287	22.31
491.744	20.65
492.2	21.06
492.657	20.98
493.114	23.71
493.57	20.07
494.027	25.44
494.484	22.24
494.94	22.01
495.397	22.39
495.853	24.73
496.31	24.77
496.766	21.91
497.222	21.48
497.679	22.61
498.135	22.35
498.591	22.6
499.048	23.65
499.504	23.97
499.96	22.89
500.416	21.94
500.872	21.16
501.329	22.22
501.785	23.05
502.241	22.88
502.697	23.98
503.153	22.04
503.609	23.4
504.065	24.17
504.521	22.78
504.977	23.35
505.432	21.91
505.888	23.61
506.344	24.44
506.8	23.04
507.256	24.5
507.711	21.36
508.167	24.31
508.623	24.62
509.078	23.14
509.534	24.02
509.99	23.81
510.445	23.35
510.901	22.84
511.356	22.45
511.812	22.56
512.267	21.72
512.722	23.22
513.178	24.64
513.633	23.04
514.089	23.93
514.544	24.3
514.999	22.56
515.454	22.86
515.91	23.39
516.365	24.46
516.82	23.55
517.275	23.29
517.73	23.61
518.185	22.73
518.64	22.99
519.095	21.8
519.55	24.63
520.005	21.76
520.46	23.49
520.915	21.78
521.37	23.05
521.825	23.35
522.28	23.69
522.734	23.76
523.189	24.74
523.644	24.1
524.099	23.36
524.553	23.58
525.008	22.78
525.462	23.96
525.917	24.83
526.372	22.89
526.826	24.16
527.281	23.2
527.735	23.27
528.19	23.07
528.644	22.46
529.098	22.42
529.553	23.5
530.007	23.81
530.461	23.45
530.916	23.51
531.37	23.21
531.824	23.68
532.278	23.47
532.732	23.75
533.186	23.67
533.641	24.48
534.095	24.16
534.549	22.92
535.003	24.63
535.457	24.55
535.911	22.75
536.365	25.18
536.818	22.12
537.272	24.66
537.726	24.03
538.18	23.17
538.634	24.97
539.087	25.48
539.541	23.43
539.995	24.77
540.449	23.78
540.902	24.79
541.356	23.79
541.809	23.67
542.263	22.89
542.716	23.59
543.17	25
543.623	25.65
544.077	24.5
544.53	24.21
544.984	25.63
545.437	24.26
545.89	24.13
546.344	23.78
546.797	26
547.25	24.97
547.703	24.59
548.157	23.92
548.61	25.59
549.063	25.24
549.516	24.59
549.969	26.12
550.422	24.37
550.875	24.75
551.328	24.42
551.781	24.99
552.234	24.19
552.687	23.1
553.14	25.27
553.592	23.8
554.045	25.73
554.498	23.84
554.951	25.08
555.404	24.34
555.856	25.9
556.309	25.68
556.762	23.15
557.214	23.63
557.667	25.36
558.119	25.36
558.572	23.9
559.024	24.77
559.477	24.81
559.929	24.79
560.382	25.33
560.834	25.29
561.286	24.1
561.739	24.39
562.191	24.87
562.643	23.8
563.095	24.67
563.548	24.13
564	24.98
564.452	25.91
564.904	24.62
565.356	24.79
565.808	24.63
566.26	24.99
566.712	25.21
567.164	26.04
567.616	23.89
568.068	25.62
568.52	24.64
568.972	24.86
569.424	24.65
569.876	24.79
570.327	24.63
570.779	25.12
571.231	25.49
571.682	24.82
572.134	24.58
572.586	25.32
573.037	24.09
573.489	24.52
573.941	24.73
574.392	25.1
574.844	25.48
575.295	24.79
575.746	25.52
576.198	23.87
576.649	23.74
577.101	24.58
577.552	26.31
578.003	25.18
578.454	25.37
578.906	23.71
579.357	25.26
579.808	25.67
580.259	24.79
580.71	26.28
581.161	25.54
581.612	25.54
582.064	25.04
582.515	25.38
582.965	25.65
583.416	25.56
583.867	25.35
584.318	24.98
584.769	25.25
585.22	25.79
585.671	25.27
586.122	25.39
586.572	25.6
587.023	25.66
587.474	25.06
587.924	26.46
588.375	25.02
588.826	25.03
589.276	25.83
589.727	24.89
590.177	26.31
590.628	26.24
591.078	25.71
591.529	24.98
591.979	24.6
592.429	25.95
592.88	25.01
593.33	25.28
593.78	25.59
594.231	25.58
594.681	24.89
595.131	24.92
595.581	25.47
596.031	25.65
596.481	25.91
596.932	26.4
597.382	24.96
597.832	25.65
598.282	25.61
598.732	26.08
599.182	24.54
599.632	25.2
600.081	25.07
600.531	26.17
600.981	26.27
601.431	24.26
601.881	25.87
602.33	26.41
602.78	24.78
603.23	25.67
603.679	26.85
604.129	26.7
604.579	27.14
605.028	24.68
605.478	25.76
605.927	25.91
606.377	25.65
606.826	25.69
607.276	26.39
607.725	26.41
608.175	25.6
608.624	25.74
609.073	25.9
609.522	26.01
609.972	25.19
610.421	25.56
610.87	24.9
611.319	25.57
611.768	25.94
612.218	25.08
612.667	26.36
613.116	25.74
613.565	27.03
614.014	24.64
614.463	26.57
614.912	25.4
615.361	25.39
615.81	25.05
616.258	25.86
616.707	26.8
617.156	26.47
617.605	24.87
618.054	26.05
618.502	25.65
618.951	25.55
619.4	25.52
619.848	27.61
620.297	25.85
620.745	27.24
621.194	27.1
621.642	26.51
622.091	25.07
622.539	25.99
622.988	24.83
623.436	26.41
623.885	26.53
624.333	26.06
624.781	27.06
625.23	26.57
625.678	26.43
626.126	25.82
626.574	24.98
627.022	25.95
627.471	26.17
627.919	26.14
628.367	25.7
628.815	26.31
629.263	25.89
629.711	26.27
630.159	26.46
630.607	26.07
631.055	25.75
631.503	26.69
631.95	25.5
632.398	25.99
632.846	26.79
633.294	26.24
633.742	26.46
634.189	26.05
634.637	27.9
635.085	25.89
635.532	25.67
635.98	26.11
636.427	26.27
636.875	26.36
637.323	25.6
637.77	26.63
638.217	26.76
638.665	25.99
639.112	26.89
639.56	25.4
640.007	26.58
640.454	26.58
640.902	26.53
641.349	26.82
641.796	25.63
642.243	26.37
642.69	25.7
643.138	26.21
643.585	26.09
644.032	26.73
644.479	26.96
644.926	27.35
645.373	26.04
645.82	26.19
646.267	26.41
646.714	26.56
647.161	27.12
647.607	26.36
648.054	26.19
648.501	26.5
648.948	26.4
649.395	27.17
649.841	26.1
650.288	26.06
650.735	26.92
651.181	26.34
651.628	26.31
652.075	27.21
652.521	26.88
652.968	26.95
653.414	27.52
653.861	25.98
654.307	26.12
654.753	26.65
655.2	26.4
655.646	25.79
656.092	27.68
656.539	26.67
656.985	26.02
657.431	26.27
657.877	26.54
658.324	25.75
658.77	27.3
659.216	27.43
659.662	27.3
660.108	26.72
660.554	27
661	25.86
661.446	27.21
661.892	27.02
662.338	26.34
662.784	26.95
663.23	26.59
663.675	26.85
664.121	27.39
664.567	27.35
665.013	26.88
665.458	27.9
665.904	27.04
666.35	26.89
666.795	26.72
667.241	26.81
667.687	26.78
668.132	27.57
668.578	27.42
669.023	26.6
669.469	26.75
669.914	27.74
670.359	26.54
670.805	27.4
671.25	26.81
671.695	26.5
672.141	27.7
672.586	27.54
673.031	27.5
673.476	27.02
673.922	27.9
674.367	27.7
674.812	27.49
675.257	26.88
675.702	27.25
676.147	26.35
676.592	26.23
677.037	27.16
677.482	27.96
677.927	27.3
678.372	27.31
678.817	27.15
679.261	27.42
679.706	27.3
680.151	27.24
680.596	26.52
681.04	27.75
681.485	27.41
681.93	27.24
682.374	27.17
682.819	27.88
683.264	27.76
683.708	28.34
684.153	27.76
684.597	27.19
685.042	27
685.486	27.85
685.93	27.24
686.375	28.29
686.819	27.4
687.263	27.51
687.708	28.19
688.152	27.56
688.596	28.24
689.04	27.57
689.485	27.64
689.929	28.07
690.373	27.18
690.817	27.92
691.261	27.94
691.705	27.46
692.149	28.18
692.593	26.97
693.037	28.21
693.481	27.8
693.925	27.96
694.369	27.39
694.812	27.33
695.256	27.69
695.7	27.87
696.144	26.91
696.587	28.86
697.031	28.11
697.475	27.51
697.918	27.55
698.362	27.26
698.806	28.31
699.249	27.93
699.693	27.44
700.136	27.91
700.58	27.45
701.023	27.88
701.466	26.95
701.91	28.33
702.353	28.38
702.796	28.62
703.24	28.26
703.683	27.82
704.126	27.58
704.569	28.18
705.013	28.19
705.456	27.86
705.899	27.31
706.342	28.07
706.785	27.85
707.228	28.64
707.671	27.72
708.114	28.16
708.557	28.02
709	28.81
709.443	27.72
709.886	27.65
710.328	28.88
710.771	28.03
711.214	27.97
711.657	28.88
712.099	27.79
712.542	27.99
712.985	28.3
713.427	27.99
713.87	28.46
714.313	28.63
714.755	28.3
715.198	28.52
715.64	27.5
716.083	28.09
716.525	27.87
716.967	27.55
717.41	28.02
717.852	28.47
718.295	28.83
718.737	28.51
719.179	28.75
719.621	28.55
720.063	28.05
720.506	28.24
720.948	28.95
721.39	28.07
721.832	28.59
722.274	28.01
722.716	28.28
723.158	27.96
723.6	28.29
724.042	28.45
724.484	27.85
724.926	28.44
725.368	27.8
725.81	28.11
726.251	28.22
726.693	28.51
727.135	28.63
727.577	27.7
728.018	28.52
728.46	28.63
728.902	29.01
729.343	28.02
729.785	28.7
730.226	28.8
730.668	28.73
731.109	28.8
731.551	28.38
731.992	29.1
732.434	28.59
732.875	29.5
733.316	28.58
733.758	28.41
734.199	29.78
734.64	28.78
735.081	28.68
735.523	29.44
735.964	28.26
736.405	28.27
736.846	28.63
737.287	29.04
737.728	28.42
738.169	28.23
738.61	29.26
739.051	28.99
739.492	29.88
739.933	29.35
740.374	28.85
740.815	28.57
741.256	28.49
741.696	28.85
742.137	28.29
742.578	29.17
743.019	28.73
743.459	29.23
743.9	29.18
744.341	29.45
744.781	28.74
745.222	28.88
745.662	28.75
746.103	28.42
746.543	28.37
746.984	28.92
747.424	29.35
747.865	29.58
748.305	29.6
748.745	28.49
749.186	29.41
749.626	29.15
750.066	29.16
750.506	28.83
750.947	28.94
751.387	30
751.827	30.03
752.267	29.19
752.707	30.39
753.147	29.02
753.587	29.39
754.027	29.77
754.467	28.97
754.907	29.32
755.347	30.23
755.787	29.37
756.227	29.62
756.667	29.39
757.107	29.48
757.546	29.07
757.986	29.72
758.426	29.03
758.865	29.27
759.305	29.78
759.745	29.24
760.184	29.16
760.624	29.72
761.063	30.11
761.503	29.26
761.943	29.22
762.382	29.22
762.821	29.38
763.261	29.16
763.7	29.21
764.14	29.58
764.579	28.91
765.018	29.52
765.457	29.45
765.897	29.12
766.336	29.64
766.775	30.03
767.214	30.61
767.653	29.19
768.092	29.6
768.531	29.37
768.97	30.22
769.409	28.62
769.848	30.07
770.287	30.23
770.726	29.27
771.165	29.69
771.604	29.17
772.043	29.82
772.482	29.27
772.92	30.25
773.359	30.15
773.798	30.31
774.237	29.32
774.675	30.24
775.114	29.55
775.553	30.03
775.991	29.8
776.43	30.17
776.868	29.46
777.307	30.12
777.745	29.18
778.184	29.9
778.622	29.85
779.06	30.27
779.499	30.15
779.937	29.63
780.375	30.2
780.814	29.73
781.252	30.47
781.69	30.21
782.128	29.74
782.566	29.99
783.004	29.46
783.443	29.97
783.881	30.58
784.319	29.6
784.757	29.19
785.195	30.15
785.633	30.28
786.071	29.94
786.508	29.6
786.946	30.15
787.384	29.52
787.822	31.03
788.26	30.27
788.697	30.18
789.135	30.05
789.573	30.08
790.011	30.49
790.448	30.35
790.886	30.23
791.323	30.23
791.761	30.51
792.198	30.1
792.636	29.96
793.073	30.02
793.511	30.33
793.948	30.63
794.386	30.66
794.823	29.94
795.26	30.66
795.698	30.73
796.135	30.53
796.572	30.54
797.009	29.6
797.446	30.48
797.884	29.94
798.321	30.63
798.758	30.46
799.195	30.55
799.632	30.07
800.069	30.48
800.506	30.79
800.943	30.31
801.38	30.95
801.817	30.69
802.254	29.72
802.69	29.66
803.127	30.57
803.564	30.9
804.001	30.75
804.438	31.67
804.874	30
805.311	31.17
805.748	30.81
806.184	30.44
806.621	30.68
807.057	30.57
807.494	30.32
807.93	31.42
808.367	30.72
808.803	31.5
809.24	30.15
809.676	31.34
810.112	30.16
810.549	30.72
810.985	31.01
811.421	31.21
811.857	30.78
812.294	30.29
812.73	31.55
813.166	30.61
813.602	30.63
814.038	30.68
814.474	30.6
814.91	30.57
815.346	31.35
815.782	30.8
816.218	30.99
816.654	30.99
817.09	30.8
817.526	31.3
817.962	30.76
818.398	31.56
818.833	30.59
819.269	30.82
819.705	30.9
820.141	31.25
820.576	30.6
821.012	30.91
821.447	30.88
821.883	31.93
822.319	30.75
822.754	30.71
823.19	30.93
823.625	31.43
824.061	31.32
824.496	30.43
824.931	31.13
825.367	31.13
825.802	31.22
826.237	30.81
826.673	31.32
827.108	31.08
827.543	31.18
827.978	31.69
828.413	31.2
828.849	31.05
829.284	30.96
829.719	31.04
830.154	31.21
830.589	31.77
831.024	31.69
831.459	31.19
831.894	31.18
832.329	31.8
832.763	31.36
833.198	31.48
833.633	31.57
834.068	31.92
834.503	32.07
834.937	31.75
835.372	31.56
835.807	31.87
836.241	31.49
836.676	31.38
837.111	32.05
837.545	31.85
837.98	31.41
838.414	31.48
838.849	32.14
839.283	31.44
839.717	31.6
840.152	31.49
840.586	31.53
841.021	31.41
841.455	31.79
841.889	31.42
842.323	31.4
842.758	31.76
843.192	31.22
843.626	31.41
844.06	31.55
844.494	31.27
844.928	31.78
845.362	32.09
845.796	31.83
846.23	31.89
846.664	32.02
847.098	31.54
847.532	32.08
847.966	31.51
848.4	31.32
848.834	32
849.267	32.02
849.701	31.7
850.135	31.49
850.569	31.58
851.002	32.6
851.436	31.54
851.87	31.52
852.303	31.97
852.737	32.17
853.17	31.76
853.604	32.38
854.037	31.63
854.471	32.12
854.904	31.94
855.337	31.77
855.771	31.89
856.204	32.18
856.637	32.13
857.071	32.22
857.504	32.14
857.937	31.6
858.37	31.75
858.804	32.36
859.237	32.49
859.67	32.05
860.103	31.97
860.536	32.4
860.969	32.26
861.402	32.12
861.835	32.35
862.268	32.22
862.701	32.42
863.134	31.73
863.566	33.2
863.999	32.48
864.432	32.6
864.865	31.5
865.298	31.93
865.73	31.46
866.163	32.34
866.596	32.49
867.028	32.54
867.461	32.22
867.893	32.33
868.326	32.65
868.758	32.73
869.191	32.31
869.623	32.13
870.056	32.33
870.488	32.44
870.92	32.6
871.353	32.24
871.785	32.49
872.217	32.22
872.65	32.41
873.082	32.44
873.514	32.68
873.946	32.93
874.378	32.6
874.81	32.57
875.243	32.44
875.675	32.46
876.107	32.23
876.539	32.96
876.971	32.66
877.403	33.49
877.834	32.24
878.266	32.32
878.698	32.65
879.13	32.42
879.562	32.76
879.994	33.02
880.425	33.03
880.857	32.72
881.289	32.71
881.72	32.92
882.152	32.75
882.584	32.65
883.015	32.43
883.447	32.81
883.878	32.62
884.31	33.04
884.741	32.65
885.173	32.9
885.604	32.83
886.035	32.09
886.467	32.87
886.898	32.75
887.329	32.76
887.76	32.71
888.192	33.35
888.623	32.73
889.054	32.75
889.485	33.09
889.916	32.79
890.347	33.09
890.778	32.93
891.209	33.1
891.64	33.18
892.071	32.86
892.502	33.16
892.933	33.2
893.364	33.03
893.795	32.91
894.226	33.52
894.657	33.31
895.087	32.94
895.518	33.16
895.949	33.76
896.38	33.29
896.81	33.16
897.241	33.74
897.671	33.22
898.102	33.92
898.533	33.11
898.963	33.6
899.394	33.58
899.824	33.53
900.254	33.14
900.685	33.46
901.115	33.24
901.546	33.08
901.976	33.55
902.406	33.24
902.836	33.07
903.267	33.25
903.697	33.08
904.127	33.22
904.557	33.57
904.987	32.97
905.417	33.5
905.847	34.23
906.277	33.36
906.707	33.14
907.137	33.84
907.567	33.55
907.997	33.11
908.427	33.64
908.857	33.74
909.287	33.71
909.717	33.54
910.146	33.65
910.576	33.77
911.006	33.79
911.436	33.66
911.865	33.47
912.295	33.38
912.724	33.71
913.154	33.83
913.584	33.6
914.013	33.75
914.443	33.79
914.872	33.77
915.302	33.52
915.731	34.1
916.16	33.43
916.59	34.04
917.019	33.74
917.448	33.68
917.878	33.63
918.307	33.9
918.736	33.77
919.165	33.48
919.594	34.14
920.023	33.32
920.452	34.43
920.882	34.1
921.311	33.5
921.74	33.97
922.169	33.52
922.597	33.83
923.026	33.53
923.455	34
923.884	33.94
924.313	34.01
924.742	33.4
925.171	33.9
925.599	34.09
926.028	34.09
926.457	34.07
926.885	33.69
927.314	34.12
927.743	33.67
928.171	34.04
928.6	34.07
929.028	34.55
929.457	34.22
929.885	33.9
930.314	34.24
930.742	33.66
931.17	34.03
931.599	33.81
932.027	34.2
932.455	34.35
932.884	34.33
933.312	34.09
933.74	33.89
934.168	34.51
934.596	34.42
935.025	33.98
935.453	34.21
935.881	34.05
936.309	33.72
936.737	33.79
937.165	34.06
937.593	33.87
938.021	34.39
938.449	34.01
938.876	33.57
939.304	33.24
939.732	34.11
940.16	34.15
940.588	34.55
941.015	34.26
941.443	34.56
941.871	35.36
942.298	35.08
942.726	33.71
943.154	34.83
943.581	33.98
944.009	34.09
944.436	34.37
944.864	34.64
945.291	33.48
945.718	33.69
946.146	33.86
946.573	33.92
947.001	34.75
947.428	34.51
947.855	34.89
948.282	33.93
948.71	34.48
949.137	34.19
949.564	34.33
949.991	34.46
950.418	34.9
950.845	34.75
951.272	34.44
951.699	34.72
952.126	34.6
952.553	34.82
952.98	34.45
953.407	35.04
953.834	34.49
954.261	34.59
954.688	34.66
955.114	34.88
955.541	34.78
955.968	34.52
956.395	34.9
956.821	34.58
957.248	35.04
957.674	34.56
958.101	34.79
958.528	34.33
958.954	34.93
959.381	34.79
959.807	34.28
960.234	34.96
960.66	34.14
961.086	34.72
961.513	34.63
961.939	34.43
962.365	34.58
962.792	34.6
963.218	34.28
963.644	35.04
964.07	34.26
964.496	34.96
964.923	34.5
965.349	34.45
965.775	35.11
966.201	34.49
966.627	34.9
967.053	35.09
967.479	35.27
967.905	34.55
968.331	35.08
968.756	34.81
969.182	35.07
969.608	34.43
970.034	35.03
970.46	35.17
970.885	35.5
971.311	35.6
971.737	34.38
972.162	35.25
972.588	35.25
973.014	35.12
973.439	34.94
973.865	35.27
974.29	35.14
974.716	35.2
975.141	35.06
975.567	35.17
975.992	35.16
976.417	35.14
976.843	35.2
977.268	35
977.693	34.89
978.119	34.97
978.544	35.29
978.969	35.19
979.394	34.91
979.819	34.91
980.244	35.02
980.669	35.43
981.095	34.85
981.52	35.51
981.945	35.06
982.369	35.5
982.794	35.24
983.219	35.11
983.644	35.13
984.069	35.25
984.494	35.52
984.919	35.25
985.343	35.63
985.768	35.23
986.193	35.68
986.618	35.71
987.042	35.42
987.467	35.33
987.891	35.52
988.316	35.22
988.741	35.49
989.165	35.42
989.59	34.9
990.014	35.26
990.438	35.75
990.863	35.18
991.287	35.64
991.712	35.11
992.136	35.74
992.56	35.12
992.984	35.3
993.409	35.28
993.833	35.58
994.257	35.06
994.681	35.53
995.105	35.75
995.529	35.36
995.953	35.82
996.377	36.15
996.801	35.66
997.225	35.54
997.649	36.01
998.073	35.9
998.497	35.69
998.921	35.64
999.345	36.1
999.769	36.07
1000.192	35.92
1000.616	36.13
1001.04	36.18
1001.464	35.74
1001.887	35.92
1002.311	35.92
1002.734	35.7
1003.158	36.02
1003.582	35.92
1004.005	36.3
1004.429	36.15
1004.852	35.96
1005.275	35.71
1005.699	35.97
1006.122	35.52
1006.546	36.23
1006.969	36.66
1007.392	36.47
1007.815	35.89
1008.239	35.94
1008.662	36.02
1009.085	36.07
1009.508	36.22
1009.931	36
1010.354	35.99
1010.778	36.5
1011.201	36.28
1011.624	36.37
1012.047	36.24
1012.469	36.37
1012.892	36.16
1013.315	36.18
1013.738	36.31
1014.161	36.56
1014.584	36.53
1015.007	36.03
1015.429	36.23
1015.852	36.31
1016.275	36.45
1016.697	36.6
1017.12	35.95
1017.543	36.52
1017.965	36.52
1018.388	36.68
1018.81	36.84
1019.233	36.12
1019.655	36.36
1020.078	36.47
1020.5	36.27
1020.922	36.2
1021.345	36.75
1021.767	36.68
1022.189	36.26
1022.612	36.5
1023.034	36.42
1023.456	37.02
1023.878	36.27
1024.301	36.66
1024.723	36.47
1025.145	36.68
1025.567	36.34
1025.989	36.03
1026.411	36.58
1026.833	36.43
1027.255	36.44
1027.677	36.39
1028.099	36.04
1028.52	36.61
1028.942	36.31
1029.364	36.8
1029.786	36.47
1030.208	36.28
1030.629	37.22
1031.051	36.62
1031.473	36.68
1031.894	36.86
1032.316	36.97
1032.738	37.35
1033.159	37.23
1033.581	36.92
1034.002	36.7
1034.424	37.51
1034.845	37.19
1035.267	37.06
1035.688	36.11
1036.109	37.19
1036.531	36.72
1036.952	37.07
1037.373	36.65
1037.794	37.03
1038.216	36.64
1038.637	36.66
1039.058	37.11
1039.479	36.94
1039.9	37.09
1040.321	37.03
1040.742	37.02
1041.163	37.62
1041.584	36.62
1042.005	37.25
1042.426	36.9
1042.847	36.79
1043.268	36.17
1043.689	37.81
1044.11	36.88
1044.53	37.1
1044.951	37.46
1045.372	37.2
1045.793	36.83
1046.213	37.15
1046.634	37.44
1047.055	37.46
1047.475	37.27
1047.896	37.77
1048.316	36.98
1048.737	38.42
1049.157	37.34
1049.578	37.53
1049.998	37.78
1050.419	37.78
1050.839	37.46
1051.259	37.44
1051.68	36.83
1052.1	36.9
1052.52	37.19
1052.94	38.01
1053.361	37.26
1053.781	36.79
1054.201	37.65
1054.621	37.52
1055.041	37.32
1055.461	38.11
1055.881	37.71
1056.301	36.58
1056.721	37.63
1057.141	36.89
1057.561	37.6
1057.981	38.22
1058.401	37.62
1058.82	37.09
1059.24	38.29
1059.66	37.08
1060.08	37.84
1060.499	36.67
1060.919	37.32
1061.339	37.73
1061.758	37.94
1062.178	37.15
1062.598	37.56
1063.017	38.03
1063.437	37.38
1063.856	37.44
1064.276	37.58
1064.695	37.86
1065.114	38.87
1065.534	37.64
1065.953	36.32
1066.372	37.47
1066.792	37.85
1067.211	37.66
1067.63	38.3
1068.049	38.79
1068.469	36.99
1068.888	37.37
1069.307	37.47
1069.726	37.06
1070.145	38.57
1070.564	36.69
1070.983	37.44
1071.402	38
1071.821	37.51
1072.24	38.26
1072.659	38.76
1073.078	37.76
1073.496	38.07
1073.915	37.11
1074.334	37.99
1074.753	38.74
1075.171	37.84
1075.59	37.8
1076.009	37.33
1076.427	37.33
1076.846	37.9
1077.265	38.03
1077.683	37.99
1078.102	38.61
1078.52	38.34
1078.939	38.7
1079.357	38.55
1079.776	38.04
1080.194	38.48
1080.612	37.68
1081.031	37.15
1081.449	38.9
1081.867	41.4
1082.285	39.14
1082.704	37.74
1083.122	37.74
1083.54	39.47
1083.958	38.47
1084.376	38.39
1084.794	37.48
1085.212	38.48
1085.63	38.37
1086.048	38.58
1086.466	38.76
1086.884	39.04
1087.302	39.09
1087.72	38.48
1088.138	37.91
1088.555	39.11
1088.973	37.86
1089.391	37.36
1089.809	38.03
1090.226	37.45
1090.644	38.26
1091.062	39.15
1091.479	38.8
1091.897	38.07
1092.314	37.42
1092.732	37.28
1093.15	39.11
1093.567	38.53
1093.984	38.43
1094.402	37.21
1094.819	38.39
1095.237	36.81
1095.654	38.05
1096.071	37.57
1096.488	37.67
1096.906	38.99
1097.323	38.83
1097.74	38.15
1098.157	37.96
1098.574	40.28
1098.991	38.19
1099.409	39.26
1099.826	36.89
1100.243	37.58
1100.66	35.92
1101.077	38.04
1101.494	38.66
1101.91	40.16
1102.327	36.93
1102.744	40.02
1103.161	38.13
1103.578	39.45
1103.994	38.87
1104.411	39.45
1104.828	38.08
1105.245	38.15
1105.661	37.84
1106.078	40.05
1106.494	37.58
1106.911	38.75
1107.328	38.65
1107.744	38.52
1108.161	36.53
1108.577	37.59
1108.993	38.81
1109.41	37.65
1109.826	39.31
1110.242	36.12
1110.659	39.07
1111.075	39.03
1111.491	39.12
1111.908	35.61
1112.324	36
1112.74	49.2
1113.156	39.11
1113.572	38.86
1113.988	39.29
1114.404	41.86
1114.82	37.23
1115.236	40.74
1115.652	37
1116.068	37.26
1116.484	34.15
1116.9	38.34
1117.316	34.62
1117.732	20.59
1118.147	56.1
1118.563	57.14
1118.979	100
