Data from JCR0005_Black1_Reflection_00002.txt Node
Date: Wed Jul 22 13:58:54 ACST 2020
User: Stacey Dix
Spectrometer: MAYP113282
Scans to average: 1
Trigger mode: 0
Integration Time (sec): 1.000000E-1
Electric dark correction enabled: true
Boxcar width: 0
XAxis mode: Wavelengths
Number of Pixels in Spectrum: 2068
>>>>>Begin Spectral Data<<<<<
198.791	33.33
199.266	300
199.74	100
200.215	42.86
200.69	-29.67
201.164	14.29
201.639	-7.19
202.114	3.55
202.588	2.89
203.063	-15.03
203.537	-0.56
204.012	4.66
204.486	3.96
204.961	-4.97
205.435	-23.94
205.909	5.02
206.384	-20.18
206.858	5.37
207.332	2.7
207.807	1.32
208.281	-2.26
208.755	-0.44
209.229	16.2
209.703	-8.29
210.177	-27.92
210.651	-7.23
211.126	-4.85
211.6	-6.72
212.074	-6.67
212.548	-4.45
213.021	-0.35
213.495	-13.11
213.969	3.97
214.443	-1.61
214.917	6.48
215.391	-14.13
215.864	-6.62
216.338	-4.24
216.812	-6.01
217.286	4.71
217.759	-6.37
218.233	-4.72
218.706	-16.71
219.18	2
219.654	-2.56
220.127	0.22
220.6	2.91
221.074	-0.2
221.547	-0.61
222.021	-4.11
222.494	-0.53
222.967	-0.84
223.441	5.47
223.914	-1.23
224.387	5.36
224.86	0.87
225.334	0.81
225.807	3.86
226.28	1.25
226.753	3.43
227.226	0.82
227.699	2.6
228.172	-1.08
228.645	0.23
229.118	2.62
229.591	0.07
230.064	-0.07
230.537	2.41
231.01	2.85
231.482	2.89
231.955	5.17
232.428	2.28
232.901	3.27
233.373	-0.04
233.846	4.73
234.319	0.78
234.791	2.41
235.264	1.95
235.736	3.55
236.209	2.98
236.681	3.98
237.154	2.92
237.626	2.63
238.099	2.65
238.571	1.13
239.044	3.83
239.516	1.77
239.988	2.61
240.46	2.06
240.933	3.11
241.405	3.19
241.877	2.54
242.349	2.76
242.821	2.76
243.293	2.24
243.765	2.24
244.237	1.61
244.71	2.14
245.181	1.76
245.653	1.97
246.125	2.11
246.597	3.38
247.069	2.96
247.541	1.98
248.013	2.21
248.485	1.31
248.956	3.19
249.428	3
249.9	2.62
250.371	3.56
250.843	2.41
251.315	1.82
251.786	2.2
252.258	2.37
252.729	2.97
253.201	1.99
253.672	2.32
254.144	2.27
254.615	2.71
255.086	2.02
255.558	2.47
256.029	2.33
256.5	2.32
256.972	2.77
257.443	2.87
257.914	2.76
258.385	2.24
258.856	2.25
259.327	2.71
259.799	2.53
260.27	2.1
260.741	2.95
261.212	2.55
261.683	1.87
262.154	1.96
262.624	3.18
263.095	1.8
263.566	2.25
264.037	2.27
264.508	2.29
264.979	2.03
265.449	3.11
265.92	2.41
266.391	2.24
266.861	2.64
267.332	2.39
267.803	1.79
268.273	2.28
268.744	2.33
269.214	2.55
269.685	2.04
270.155	1.95
270.626	1.97
271.096	1.09
271.566	1.37
272.037	2
272.507	1.82
272.977	2.55
273.448	1.06
273.918	1.87
274.388	2.5
274.858	1.71
275.328	2.28
275.798	2.45
276.268	1.96
276.738	2.54
277.208	2.16
277.678	2.41
278.148	2.56
278.618	3.04
279.088	1.84
279.558	2.07
280.028	2.34
280.498	1.56
280.968	2.36
281.437	2.82
281.907	2.39
282.377	2.08
282.847	2.34
283.316	1.71
283.786	2.13
284.255	1.79
284.725	2.13
285.194	2.36
285.664	1.72
286.133	2.13
286.603	1.97
287.072	1.98
287.542	2.56
288.011	2.57
288.48	2.62
288.95	2.6
289.419	2.66
289.888	2.47
290.357	2.53
290.827	2.39
291.296	2.44
291.765	2.72
292.234	2.11
292.703	2.34
293.172	2.36
293.641	2.46
294.11	1.64
294.579	2.35
295.048	1.7
295.517	2
295.986	2.02
296.455	1.75
296.923	1.91
297.392	2.78
297.861	2.23
298.33	2.49
298.798	2.51
299.267	2.68
299.736	2.37
300.204	1.77
300.673	2.27
301.141	2.22
301.61	2.29
302.079	2.16
302.547	2.33
303.015	1.68
303.484	1.87
303.952	2.45
304.421	1.96
304.889	1.57
305.357	2.84
305.825	1.91
306.294	2.15
306.762	2.06
307.23	1.66
307.698	1.88
308.166	2.09
308.634	1.75
309.103	1.87
309.571	1.25
310.039	2.13
310.507	1.69
310.975	1.92
311.442	2.02
311.91	1.54
312.378	1.79
312.846	2.44
313.314	1.21
313.782	1.31
314.249	0.57
314.717	2.23
315.185	1.82
315.652	1.76
316.12	1.95
316.588	2.33
317.055	2.03
317.523	1.97
317.99	1.93
318.458	2.99
318.925	1.71
319.393	2.05
319.86	2.22
320.328	2.59
320.795	1.81
321.262	2.14
321.73	2.52
322.197	2.08
322.664	1.28
323.131	0.97
323.598	1.35
324.066	0.81
324.533	1.85
325	2.08
325.467	1.85
325.934	1.54
326.401	1.56
326.868	1.99
327.335	2.14
327.802	1.04
328.269	2.19
328.735	1.3
329.202	2.56
329.669	1.17
330.136	1.7
330.603	1.65
331.069	1.65
331.536	2.21
332.003	1.98
332.469	1.58
332.936	1.96
333.402	2
333.869	1.21
334.336	1.93
334.802	1.56
335.268	1.7
335.735	2.02
336.201	1.95
336.668	1.5
337.134	2.13
337.6	1.08
338.067	2.07
338.533	1.72
338.999	1.46
339.465	1.55
339.931	2.26
340.398	1.1
340.864	1.34
341.33	2.25
341.796	1.15
342.262	1.43
342.728	1.15
343.194	0.61
343.66	2.18
344.126	0.87
344.592	1.22
345.057	1.55
345.523	1.52
345.989	1.65
346.455	1.64
346.921	2.15
347.386	1.68
347.852	1.83
348.318	2.04
348.783	1.6
349.249	1.33
349.714	2.1
350.18	0.59
350.645	1.39
351.111	1.2
351.576	1.12
352.042	2.46
352.507	2.12
352.973	1.58
353.438	1.37
353.903	1.92
354.369	2.14
354.834	1.53
355.299	1.08
355.764	1.5
356.229	1.31
356.695	1.52
357.16	1.29
357.625	1.88
358.09	1.82
358.555	1.1
359.02	1.01
359.485	0.74
359.95	1.21
360.415	1.51
360.879	1.43
361.344	0.51
361.809	1.73
362.274	1.66
362.739	0.99
363.203	1.49
363.668	1.59
364.133	1.76
364.597	1.49
365.062	0.85
365.527	1.77
365.991	1.35
366.456	1.66
366.92	1.42
367.385	1.36
367.849	0.47
368.314	0.48
368.778	1.75
369.242	1.01
369.707	1.3
370.171	1.64
370.635	1.97
371.1	1.23
371.564	1.4
372.028	0.61
372.492	0.88
372.956	1.25
373.42	1.65
373.884	1.33
374.348	0.58
374.812	0.75
375.276	1.67
375.74	1.58
376.204	0.81
376.668	1.39
377.132	1.96
377.596	1.84
378.06	1.33
378.524	1.6
378.987	1.14
379.451	0.98
379.915	1.74
380.378	1.69
380.842	0.73
381.306	2.16
381.769	1.6
382.233	1.02
382.696	2.44
383.16	1.67
383.623	0.42
384.087	1.66
384.55	1.62
385.014	1.69
385.477	1.5
385.94	0.99
386.404	2.07
386.867	2.18
387.33	1.24
387.793	1.71
388.256	0.75
388.72	0.76
389.183	1.85
389.646	0.51
390.109	1.52
390.572	1.04
391.035	2.26
391.498	1.8
391.961	1.29
392.424	1.57
392.887	0.96
393.35	1.32
393.812	1.38
394.275	1.08
394.738	1.5
395.201	0.62
395.664	1.35
396.126	1.39
396.589	1.64
397.052	1.63
397.514	1.41
397.977	0.75
398.439	0.73
398.902	1.46
399.364	1.04
399.827	1.38
400.289	0.61
400.752	1.53
401.214	1.19
401.676	1.5
402.139	1.18
402.601	1.98
403.063	1.89
403.525	0.81
403.988	0.42
404.45	1.62
404.912	1.82
405.374	1.23
405.836	1.18
406.298	1.07
406.76	1.46
407.222	1.71
407.684	1.36
408.146	1.78
408.608	1.32
409.07	1.31
409.532	1.88
409.994	0.6
410.456	0.82
410.917	1
411.379	0.76
411.841	1.01
412.303	1.64
412.764	0.97
413.226	0.84
413.687	0.05
414.149	1.75
414.611	1.06
415.072	0.68
415.534	0.8
415.995	1.27
416.457	1.65
416.918	1.31
417.379	1.24
417.841	1.51
418.302	1.1
418.763	1.63
419.225	1.78
419.686	1.44
420.147	1.05
420.608	1.51
421.069	1.94
421.53	1.55
421.991	1.58
422.453	0.8
422.914	1.52
423.375	1.22
423.836	1.28
424.297	1.92
424.757	1.52
425.218	1.06
425.679	0.58
426.14	1.41
426.601	1.5
427.062	0.77
427.522	1.61
427.983	2.2
428.444	1.18
428.904	1.69
429.365	0.46
429.826	0.94
430.286	1.95
430.747	1.14
431.207	1.07
431.668	-0.45
432.128	0.09
432.589	0.76
433.049	1.51
433.509	1.57
433.97	0.56
434.43	0.48
434.89	0.66
435.351	0.85
435.811	2.31
436.271	1.3
436.731	0.49
437.191	1.81
437.651	1.35
438.112	1.25
438.572	-0.5
439.032	0.99
439.492	0.78
439.952	1.22
440.412	1.01
440.871	-0.3
441.331	2.75
441.791	1.07
442.251	0.83
442.711	1.54
443.171	1.55
443.63	1.56
444.09	1.57
444.55	1.3
445.009	1.47
445.469	-0.02
445.929	1.34
446.388	2.29
446.848	1.1
447.307	1.83
447.767	1.48
448.226	2.08
448.686	1.47
449.145	2.3
449.604	0.74
450.064	1.26
450.523	1.18
450.982	0.67
451.442	0.96
451.901	1.21
452.36	1.93
452.819	2.08
453.278	0.51
453.737	0.85
454.197	0.56
454.656	2.01
455.115	0.86
455.574	0.92
456.033	1.59
456.492	0.52
456.95	0.42
457.409	0.22
457.868	0.44
458.327	1.04
458.786	1.08
459.245	0.58
459.703	0.91
460.162	1.29
460.621	0.77
461.079	1.64
461.538	1.41
461.997	0.84
462.455	1.31
462.914	2.15
463.372	1.25
463.831	1.06
464.289	0.41
464.748	2.35
465.206	1.88
465.664	1.07
466.123	1.08
466.581	1.31
467.039	1.14
467.497	-0.32
467.956	0.89
468.414	0.44
468.872	1.3
469.33	0.45
469.788	1.52
470.246	1.87
470.704	-0.09
471.162	2.36
471.62	0.09
472.078	0.83
472.536	0.51
472.994	1.63
473.452	1.12
473.91	0.75
474.368	1.01
474.826	1.73
475.283	0.81
475.741	0.4
476.199	1.32
476.656	0.46
477.114	0.85
477.572	0.81
478.029	0.66
478.487	1.55
478.944	1.07
479.402	1.23
479.859	2.54
480.317	0.7
480.774	0.47
481.232	-0.22
481.689	1.29
482.146	1.21
482.604	1.05
483.061	0.71
483.518	1.74
483.975	0.84
484.433	1
484.89	1.83
485.347	0.85
485.804	2.29
486.261	1.67
486.718	-0.16
487.175	1.15
487.632	-0.54
488.089	0.7
488.546	0.91
489.003	1.6
489.46	2.13
489.917	0.67
490.373	0.54
490.83	1.3
491.287	2.79
491.744	1.36
492.2	0.79
492.657	0.85
493.114	0.16
493.57	0.34
494.027	0.91
494.484	1.45
494.94	0.62
495.397	0.79
495.853	1.22
496.31	0.4
496.766	1.37
497.222	0.76
497.679	0.76
498.135	1.03
498.591	0.53
499.048	0.81
499.504	1.17
499.96	1.1
500.416	1.27
500.872	1.56
501.329	-0.62
501.785	0.03
502.241	0.77
502.697	1.1
503.153	2.1
503.609	1.28
504.065	0.54
504.521	0.84
504.977	0.3
505.432	0.89
505.888	0.91
506.344	1.64
506.8	0.64
507.256	1.48
507.711	1.52
508.167	0.07
508.623	1.85
509.078	1.28
509.534	0.69
509.99	0.87
510.445	0.6
510.901	0.48
511.356	2.28
511.812	2.27
512.267	0.12
512.722	1.34
513.178	0.62
513.633	0.92
514.089	0.15
514.544	0.56
514.999	0.55
515.454	0.93
515.91	0.79
516.365	0.28
516.82	1.14
517.275	1.5
517.73	0.7
518.185	1.1
518.64	0.15
519.095	1.35
519.55	0.45
520.005	0.78
520.46	1.36
520.915	0.31
521.37	2.42
521.825	1.1
522.28	1.27
522.734	1.01
523.189	0.61
523.644	0.66
524.099	1.27
524.553	1.31
525.008	1.24
525.462	0.02
525.917	1.05
526.372	1.44
526.826	0.88
527.281	1.63
527.735	1.64
528.19	1.05
528.644	0.96
529.098	0.5
529.553	0.76
530.007	1.54
530.461	1.24
530.916	1.61
531.37	2.02
531.824	1.15
532.278	0.43
532.732	1.77
533.186	1.62
533.641	0.63
534.095	1.38
534.549	1.32
535.003	1.13
535.457	1.29
535.911	0.77
536.365	1.14
536.818	0.46
537.272	2.63
537.726	-0.17
538.18	1.14
538.634	1.06
539.087	0.37
539.541	1.69
539.995	0.63
540.449	1.37
540.902	1.1
541.356	1.66
541.809	-1.14
542.263	1.45
542.716	1.8
543.17	0.94
543.623	0.53
544.077	0.77
544.53	1.45
544.984	1.72
545.437	1.53
545.89	0.62
546.344	1.81
546.797	1.2
547.25	0.8
547.703	0.85
548.157	2.03
548.61	0.02
549.063	1.12
549.516	1.96
549.969	0.63
550.422	0.45
550.875	0.63
551.328	1.41
551.781	-0.06
552.234	0.57
552.687	0.94
553.14	0.65
553.592	1.38
554.045	1.45
554.498	-0.02
554.951	0.86
555.404	1.61
555.856	2.23
556.309	1.15
556.762	0.98
557.214	1.39
557.667	1.54
558.119	1.62
558.572	1.35
559.024	0.86
559.477	0.94
559.929	0.6
560.382	0.72
560.834	1.4
561.286	1.52
561.739	0.84
562.191	1.05
562.643	1.38
563.095	1.07
563.548	1.24
564	0.84
564.452	0.98
564.904	1.64
565.356	0.85
565.808	0.4
566.26	1.26
566.712	0.84
567.164	0.64
567.616	1.48
568.068	1.05
568.52	0.95
568.972	1.03
569.424	1.45
569.876	1.61
570.327	0.67
570.779	1.69
571.231	0.66
571.682	1.22
572.134	1.8
572.586	1.66
573.037	1.16
573.489	1.33
573.941	1.15
574.392	1.13
574.844	1.18
575.295	2.28
575.746	1.07
576.198	1.12
576.649	0.93
577.101	1.98
577.552	0.63
578.003	0.61
578.454	1.32
578.906	1.28
579.357	0.72
579.808	1.34
580.259	1.35
580.71	1.35
581.161	1.11
581.612	1.77
582.064	0.81
582.515	0.96
582.965	1.44
583.416	1.33
583.867	2.06
584.318	0.81
584.769	1.75
585.22	1.06
585.671	0.56
586.122	1.49
586.572	1.18
587.023	1.59
587.474	1.18
587.924	1.13
588.375	0.99
588.826	0.58
589.276	1.67
589.727	1.19
590.177	1.35
590.628	0.41
591.078	1.15
591.529	0.81
591.979	1.17
592.429	1.25
592.88	0.93
593.33	1.05
593.78	0.84
594.231	1.04
594.681	1.05
595.131	1.13
595.581	0.79
596.031	1.25
596.481	1.21
596.932	1.34
597.382	1.8
597.832	1.3
598.282	1.49
598.732	0.86
599.182	1.47
599.632	1.32
600.081	1.02
600.531	0.8
600.981	1.62
601.431	1.13
601.881	2.04
602.33	0.79
602.78	1.06
603.23	0.7
603.679	1.47
604.129	1.16
604.579	0.92
605.028	0.85
605.478	0.83
605.927	1.4
606.377	1.02
606.826	1.58
607.276	1.51
607.725	1.65
608.175	0.96
608.624	0.98
609.073	1.62
609.522	1.29
609.972	1.65
610.421	1.08
610.87	1.15
611.319	0.91
611.768	1.46
612.218	1.37
612.667	1.12
613.116	1.56
613.565	1.57
614.014	0.99
614.463	1.12
614.912	1.24
615.361	1.73
615.81	1.27
616.258	1.46
616.707	0.99
617.156	1.21
617.605	0.94
618.054	1.23
618.502	1.13
618.951	1.48
619.4	1.13
619.848	1.39
620.297	1.54
620.745	1.9
621.194	1.33
621.642	0.92
622.091	1.1
622.539	1.51
622.988	1.03
623.436	1.05
623.885	1.23
624.333	1.35
624.781	0.88
625.23	1.29
625.678	1.14
626.126	1.29
626.574	1.32
627.022	1.34
627.471	1.36
627.919	1.6
628.367	1.36
628.815	1.69
629.263	1.51
629.711	1.14
630.159	1.38
630.607	1.4
631.055	1.62
631.503	1.33
631.95	1.57
632.398	1.29
632.846	0.63
633.294	1.85
633.742	1.5
634.189	1.19
634.637	1.07
635.085	1.23
635.532	0.97
635.98	1.65
636.427	1.08
636.875	2.01
637.323	1.18
637.77	1.02
638.217	1.36
638.665	1.28
639.112	0.89
639.56	1.48
640.007	0.75
640.454	1.52
640.902	1.47
641.349	1.55
641.796	1.7
642.243	1.6
642.69	1.32
643.138	1.27
643.585	1.61
644.032	1.45
644.479	1.27
644.926	0.98
645.373	1.43
645.82	1.05
646.267	1.54
646.714	1.04
647.161	1.69
647.607	1.55
648.054	1.09
648.501	1.31
648.948	1.36
649.395	1.08
649.841	1.3
650.288	1.18
650.735	1.71
651.181	1.31
651.628	1.19
652.075	1.38
652.521	1.27
652.968	1.29
653.414	1.45
653.861	1.21
654.307	1.05
654.753	1.5
655.2	1.47
655.646	0.94
656.092	1.15
656.539	1.38
656.985	1.04
657.431	0.93
657.877	1.02
658.324	1.47
658.77	1.37
659.216	1.42
659.662	1.49
660.108	1.27
660.554	1.09
661	1.04
661.446	1.85
661.892	1.01
662.338	1.22
662.784	1.41
663.23	1.41
663.675	1.13
664.121	1.53
664.567	1.22
665.013	1.77
665.458	1.23
665.904	1.37
666.35	1.24
666.795	1.6
667.241	1.12
667.687	1.15
668.132	1.75
668.578	1.14
669.023	1.26
669.469	1.36
669.914	1.4
670.359	1.42
670.805	1.45
671.25	1.35
671.695	1.03
672.141	1.41
672.586	1.52
673.031	1.39
673.476	1.7
673.922	1.66
674.367	1.51
674.812	1.31
675.257	1.53
675.702	1.5
676.147	1.71
676.592	1.15
677.037	1.64
677.482	1.31
677.927	1.41
678.372	1.43
678.817	1.26
679.261	1.28
679.706	1.36
680.151	1.52
680.596	1.64
681.04	1.34
681.485	1.06
681.93	1.44
682.374	1.3
682.819	1.67
683.264	1.4
683.708	1.55
684.153	1.1
684.597	1.09
685.042	1.67
685.486	1.53
685.93	1.64
686.375	1.15
686.819	1.37
687.263	1.32
687.708	1.39
688.152	1.43
688.596	1.27
689.04	1.31
689.485	1.42
689.929	1.86
690.373	1.64
690.817	1.55
691.261	1.41
691.705	1.42
692.149	1.35
692.593	1.2
693.037	1.61
693.481	1.43
693.925	1.44
694.369	1.59
694.812	1.58
695.256	1.5
695.7	1.28
696.144	1.38
696.587	1.32
697.031	1.16
697.475	1.47
697.918	1.57
698.362	1.52
698.806	1.66
699.249	1.64
699.693	1.19
700.136	1.48
700.58	1.59
701.023	1.5
701.466	1.54
701.91	1.26
702.353	1.22
702.796	1.28
703.24	1.32
703.683	1.5
704.126	1.43
704.569	1.51
705.013	1.4
705.456	1.47
705.899	1.46
706.342	1.18
706.785	1.54
707.228	1.53
707.671	1.39
708.114	1.37
708.557	1.33
709	1.44
709.443	1.5
709.886	1.51
710.328	1.63
710.771	1.6
711.214	1.15
711.657	1.47
712.099	1.43
712.542	1.6
712.985	1.62
713.427	1.16
713.87	1.34
714.313	1.19
714.755	1.28
715.198	1.52
715.64	1.6
716.083	1.7
716.525	1.66
716.967	1.83
717.41	1.41
717.852	1.45
718.295	1.06
718.737	1.57
719.179	1.69
719.621	1.56
720.063	1.69
720.506	1.54
720.948	2
721.39	1.46
721.832	1.74
722.274	1.48
722.716	1.32
723.158	1.49
723.6	1.58
724.042	1.36
724.484	1.47
724.926	1.33
725.368	1.75
725.81	1.3
726.251	1.39
726.693	1.34
727.135	1.55
727.577	1.17
728.018	1.3
728.46	1.42
728.902	1.54
729.343	1.58
729.785	1.58
730.226	1.49
730.668	1.44
731.109	1.56
731.551	1.65
731.992	1.23
732.434	1.56
732.875	1.71
733.316	1.21
733.758	1.28
734.199	1.7
734.64	1.28
735.081	1.52
735.523	1.63
735.964	1.47
736.405	1.7
736.846	1.24
737.287	1.54
737.728	1.32
738.169	1.44
738.61	1.75
739.051	1.45
739.492	1.51
739.933	1.18
740.374	1.52
740.815	1.5
741.256	1.47
741.696	1.43
742.137	1.55
742.578	1.46
743.019	1.48
743.459	1.47
743.9	1.45
744.341	1.6
744.781	1.75
745.222	1.66
745.662	1.57
746.103	1.5
746.543	1.49
746.984	1.61
747.424	1.44
747.865	1.88
748.305	1.65
748.745	1.46
749.186	1.58
749.626	1.7
750.066	1.66
750.506	1.32
750.947	1.66
751.387	1.65
751.827	1.72
752.267	1.43
752.707	1.33
753.147	1.19
753.587	1.57
754.027	1.89
754.467	1.65
754.907	1.25
755.347	1.51
755.787	1.33
756.227	1.52
756.667	1.58
757.107	1.66
757.546	1.67
757.986	1.77
758.426	1.42
758.865	1.75
759.305	1.51
759.745	1.63
760.184	1.73
760.624	1.43
761.063	1.5
761.503	1.78
761.943	1.66
762.382	2.04
762.821	1.35
763.261	1.68
763.7	1.82
764.14	1.55
764.579	1.49
765.018	1.99
765.457	1.54
765.897	1.63
766.336	1.75
766.775	1.71
767.214	1.7
767.653	1.4
768.092	1.8
768.531	1.67
768.97	1.46
769.409	1.71
769.848	1.5
770.287	1.78
770.726	1.41
771.165	1.85
771.604	1.62
772.043	1.44
772.482	1.81
772.92	1.88
773.359	1.53
773.798	1.68
774.237	1.43
774.675	1.59
775.114	1.65
775.553	1.85
775.991	1.66
776.43	1.6
776.868	1.68
777.307	1.26
777.745	1.93
778.184	1.47
778.622	1.49
779.06	1.58
779.499	1.78
779.937	1.73
780.375	1.56
780.814	1.71
781.252	1.67
781.69	1.83
782.128	2.02
782.566	1.54
783.004	1.52
783.443	1.95
783.881	1.51
784.319	1.79
784.757	1.46
785.195	1.86
785.633	1.9
786.071	1.5
786.508	1.61
786.946	1.59
787.384	1.61
787.822	1.55
788.26	1.84
788.697	1.9
789.135	1.47
789.573	1.46
790.011	1.89
790.448	1.61
790.886	1.87
791.323	1.85
791.761	1.44
792.198	1.81
792.636	1.69
793.073	1.78
793.511	1.7
793.948	1.73
794.386	1.58
794.823	1.61
795.26	1.75
795.698	1.92
796.135	1.78
796.572	1.73
797.009	1.47
797.446	1.73
797.884	1.61
798.321	1.63
798.758	1.64
799.195	1.71
799.632	1.71
800.069	1.7
800.506	1.6
800.943	1.86
801.38	1.88
801.817	1.76
802.254	1.64
802.69	1.8
803.127	1.62
803.564	1.66
804.001	2
804.438	1.76
804.874	1.77
805.311	1.6
805.748	1.67
806.184	1.75
806.621	1.73
807.057	1.99
807.494	1.89
807.93	1.98
808.367	1.86
808.803	1.84
809.24	1.94
809.676	2.02
810.112	1.84
810.549	1.68
810.985	1.88
811.421	1.85
811.857	1.79
812.294	1.71
812.73	1.77
813.166	1.9
813.602	1.88
814.038	1.5
814.474	1.86
814.91	1.69
815.346	1.95
815.782	1.83
816.218	1.89
816.654	1.89
817.09	1.93
817.526	1.84
817.962	1.87
818.398	1.86
818.833	1.8
819.269	1.96
819.705	1.8
820.141	1.83
820.576	2.04
821.012	1.95
821.447	1.76
821.883	1.88
822.319	1.89
822.754	1.84
823.19	1.92
823.625	1.83
824.061	2.06
824.496	1.87
824.931	1.99
825.367	1.98
825.802	1.99
826.237	1.91
826.673	2.11
827.108	2.09
827.543	1.7
827.978	1.96
828.413	1.88
828.849	1.96
829.284	1.9
829.719	2.03
830.154	1.77
830.589	1.91
831.024	1.97
831.459	2.14
831.894	1.91
832.329	1.95
832.763	2.03
833.198	1.79
833.633	2.12
834.068	1.99
834.503	1.91
834.937	2.01
835.372	1.98
835.807	2.07
836.241	1.89
836.676	2.1
837.111	1.91
837.545	2.17
837.98	2.07
838.414	1.97
838.849	1.88
839.283	1.92
839.717	2.16
840.152	1.99
840.586	1.99
841.021	2.07
841.455	1.9
841.889	2.15
842.323	2.15
842.758	1.99
843.192	2.14
843.626	2.01
844.06	2.03
844.494	2.06
844.928	2.04
845.362	2.04
845.796	1.95
846.23	2.08
846.664	1.9
847.098	2.1
847.532	2.1
847.966	2.29
848.4	2.12
848.834	2.27
849.267	2.13
849.701	1.8
850.135	2.14
850.569	2.18
851.002	2.19
851.436	2.03
851.87	1.99
852.303	2.06
852.737	2.23
853.17	2.29
853.604	2.31
854.037	2.13
854.471	2.27
854.904	2.12
855.337	2.25
855.771	2.02
856.204	2.09
856.637	2.1
857.071	1.97
857.504	2.11
857.937	2.02
858.37	1.98
858.804	2.08
859.237	2
859.67	2.2
860.103	2.16
860.536	2.08
860.969	2.15
861.402	2.37
861.835	2.37
862.268	2.09
862.701	2.28
863.134	2.4
863.566	2.16
863.999	2.2
864.432	2.36
864.865	2.35
865.298	2.17
865.73	2.28
866.163	2.07
866.596	2.26
867.028	2.39
867.461	2.32
867.893	2.2
868.326	2.24
868.758	2.3
869.191	2.19
869.623	2.55
870.056	2.23
870.488	2.26
870.92	2.22
871.353	2.47
871.785	2.32
872.217	2.37
872.65	2.39
873.082	2.37
873.514	2.34
873.946	2.45
874.378	2.4
874.81	2.24
875.243	2.54
875.675	2.21
876.107	2.38
876.539	2.43
876.971	2.32
877.403	2.38
877.834	2.49
878.266	2.34
878.698	2.15
879.13	2.41
879.562	2.33
879.994	2.38
880.425	2.29
880.857	2.23
881.289	2.32
881.72	2.45
882.152	2.46
882.584	2.36
883.015	2.27
883.447	2.35
883.878	2.34
884.31	2.42
884.741	2.29
885.173	2.35
885.604	2.48
886.035	2.48
886.467	2.41
886.898	2.36
887.329	2.47
887.76	2.5
888.192	2.59
888.623	2.4
889.054	2.48
889.485	2.6
889.916	2.35
890.347	2.54
890.778	2.41
891.209	2.47
891.64	2.44
892.071	2.4
892.502	2.46
892.933	2.37
893.364	2.5
893.795	2.47
894.226	2.65
894.657	2.52
895.087	2.49
895.518	2.67
895.949	2.54
896.38	2.52
896.81	2.58
897.241	2.66
897.671	2.61
898.102	2.55
898.533	2.54
898.963	2.5
899.394	2.61
899.824	2.51
900.254	2.52
900.685	2.61
901.115	2.64
901.546	2.66
901.976	2.67
902.406	2.61
902.836	2.37
903.267	2.55
903.697	2.55
904.127	2.54
904.557	2.59
904.987	2.72
905.417	2.38
905.847	2.73
906.277	2.65
906.707	2.59
907.137	2.73
907.567	2.62
907.997	2.63
908.427	2.72
908.857	2.73
909.287	2.7
909.717	2.77
910.146	2.56
910.576	2.64
911.006	2.77
911.436	2.65
911.865	2.77
912.295	2.68
912.724	2.78
913.154	2.73
913.584	2.73
914.013	2.53
914.443	2.78
914.872	2.8
915.302	2.83
915.731	2.61
916.16	2.77
916.59	2.76
917.019	2.77
917.448	2.82
917.878	2.79
918.307	2.87
918.736	2.75
919.165	2.93
919.594	2.75
920.023	3.01
920.452	2.95
920.882	2.87
921.311	2.79
921.74	2.75
922.169	2.8
922.597	2.83
923.026	2.83
923.455	2.99
923.884	2.91
924.313	2.93
924.742	2.88
925.171	2.89
925.599	2.89
926.028	2.8
926.457	3.11
926.885	2.89
927.314	2.79
927.743	2.98
928.171	2.92
928.6	3.12
929.028	3
929.457	2.88
929.885	2.87
930.314	3
930.742	2.87
931.17	2.97
931.599	2.97
932.027	2.95
932.455	2.97
932.884	2.97
933.312	3.03
933.74	2.91
934.168	3.12
934.596	3
935.025	2.9
935.453	3.2
935.881	3.19
936.309	2.95
936.737	3.08
937.165	3.05
937.593	3.04
938.021	3.12
938.449	2.9
938.876	2.8
939.304	2.95
939.732	2.97
940.16	3.17
940.588	2.98
941.015	2.97
941.443	3.1
941.871	2.96
942.298	3.09
942.726	3.11
943.154	3.07
943.581	2.82
944.009	3.08
944.436	3.01
944.864	3.23
945.291	3.12
945.718	3.08
946.146	3.22
946.573	3.07
947.001	3.04
947.428	2.83
947.855	3.14
948.282	2.72
948.71	3.37
949.137	3.18
949.564	3.1
949.991	3.17
950.418	3.11
950.845	3.06
951.272	3.29
951.699	3.17
952.126	3.11
952.553	3.28
952.98	2.96
953.407	3.19
953.834	3.26
954.261	3.28
954.688	3.24
955.114	3.19
955.541	3.44
955.968	3.48
956.395	3.18
956.821	3.29
957.248	3.29
957.674	3.3
958.101	3.32
958.528	3.43
958.954	3.36
959.381	3.51
959.807	3.52
960.234	3.46
960.66	3.4
961.086	3.25
961.513	3.34
961.939	3.46
962.365	3.41
962.792	3.5
963.218	3.33
963.644	3.41
964.07	3.48
964.496	3.41
964.923	3.51
965.349	3.39
965.775	3.54
966.201	3.51
966.627	3.54
967.053	3.53
967.479	3.43
967.905	3.65
968.331	3.52
968.756	3.64
969.182	3.7
969.608	3.68
970.034	3.63
970.46	3.46
970.885	3.59
971.311	3.63
971.737	3.62
972.162	3.69
972.588	3.72
973.014	3.53
973.439	3.56
973.865	3.5
974.29	3.57
974.716	3.64
975.141	3.55
975.567	3.57
975.992	3.63
976.417	3.45
976.843	3.66
977.268	3.66
977.693	3.79
978.119	3.57
978.544	3.67
978.969	3.81
979.394	3.68
979.819	3.82
980.244	3.74
980.669	3.74
981.095	3.74
981.52	3.76
981.945	3.87
982.369	3.93
982.794	3.76
983.219	3.72
983.644	3.89
984.069	3.74
984.494	3.69
984.919	3.8
985.343	3.71
985.768	3.9
986.193	3.9
986.618	3.76
987.042	3.9
987.467	3.82
987.891	3.94
988.316	3.99
988.741	3.97
989.165	4.01
989.59	3.94
990.014	3.88
990.438	3.97
990.863	3.95
991.287	3.69
991.712	3.97
992.136	3.96
992.56	3.98
992.984	4.07
993.409	4.05
993.833	3.93
994.257	4.02
994.681	4.16
995.105	4.01
995.529	4.16
995.953	4
996.377	3.96
996.801	4.1
997.225	3.92
997.649	4.17
998.073	4.21
998.497	4.09
998.921	4.11
999.345	4.18
999.769	4.16
1000.192	4.04
1000.616	4.2
1001.04	3.98
1001.464	4.12
1001.887	4.11
1002.311	4.3
1002.734	4.2
1003.158	4.27
1003.582	4.34
1004.005	4.26
1004.429	4.34
1004.852	4.15
1005.275	4.15
1005.699	4.33
1006.122	4.21
1006.546	4.2
1006.969	4.32
1007.392	4.28
1007.815	4.24
1008.239	4.35
1008.662	4.32
1009.085	4.19
1009.508	4.23
1009.931	4.3
1010.354	4.43
1010.778	4.24
1011.201	4.4
1011.624	4.26
1012.047	4.19
1012.469	4.41
1012.892	4.3
1013.315	4.28
1013.738	4.48
1014.161	4.38
1014.584	4.38
1015.007	4.42
1015.429	4.4
1015.852	4.37
1016.275	4.44
1016.697	4.44
1017.12	4.42
1017.543	4.33
1017.965	4.34
1018.388	4.42
1018.81	4.36
1019.233	4.37
1019.655	4.57
1020.078	4.43
1020.5	4.42
1020.922	4.44
1021.345	4.42
1021.767	4.4
1022.189	4.52
1022.612	4.43
1023.034	4.29
1023.456	4.55
1023.878	4.48
1024.301	4.52
1024.723	4.52
1025.145	4.52
1025.567	4.51
1025.989	4.51
1026.411	4.58
1026.833	4.73
1027.255	4.57
1027.677	4.43
1028.099	4.57
1028.52	4.39
1028.942	4.56
1029.364	4.56
1029.786	4.77
1030.208	4.73
1030.629	4.74
1031.051	4.58
1031.473	4.79
1031.894	4.64
1032.316	4.56
1032.738	4.62
1033.159	4.73
1033.581	4.81
1034.002	4.72
1034.424	4.75
1034.845	4.92
1035.267	4.73
1035.688	4.6
1036.109	4.84
1036.531	4.96
1036.952	4.78
1037.373	4.84
1037.794	4.68
1038.216	4.81
1038.637	4.81
1039.058	5.01
1039.479	4.75
1039.9	4.8
1040.321	4.84
1040.742	4.86
1041.163	4.8
1041.584	4.84
1042.005	4.9
1042.426	4.99
1042.847	4.97
1043.268	4.9
1043.689	4.97
1044.11	5.08
1044.53	5.16
1044.951	4.98
1045.372	5.06
1045.793	4.89
1046.213	4.74
1046.634	4.94
1047.055	4.82
1047.475	5.17
1047.896	5.13
1048.316	5.1
1048.737	4.93
1049.157	5.17
1049.578	4.79
1049.998	5.07
1050.419	5
1050.839	5.04
1051.259	5.17
1051.68	5.29
1052.1	5.1
1052.52	4.95
1052.94	5.06
1053.361	5.02
1053.781	5.11
1054.201	5
1054.621	5.46
1055.041	4.99
1055.461	4.97
1055.881	5.06
1056.301	5.01
1056.721	5.45
1057.141	4.89
1057.561	5.03
1057.981	4.91
1058.401	5.28
1058.82	4.95
1059.24	5.44
1059.66	5.29
1060.08	5.44
1060.499	5.47
1060.919	4.98
1061.339	4.81
1061.758	5.22
1062.178	5.35
1062.598	5.42
1063.017	5.42
1063.437	5.59
1063.856	5.06
1064.276	5.24
1064.695	5.4
1065.114	5.36
1065.534	5.32
1065.953	5.5
1066.372	5.33
1066.792	5.43
1067.211	5.41
1067.63	5.17
1068.049	5.67
1068.469	5.15
1068.888	5.67
1069.307	5.12
1069.726	5.88
1070.145	5.2
1070.564	5.32
1070.983	5.4
1071.402	5.34
1071.821	5.44
1072.24	5.07
1072.659	5.58
1073.078	5.29
1073.496	5.65
1073.915	5.67
1074.334	5.52
1074.753	5.29
1075.171	5.49
1075.59	5.2
1076.009	5.55
1076.427	4.95
1076.846	5.93
1077.265	5.46
1077.683	5.11
1078.102	5.2
1078.52	5.33
1078.939	5.2
1079.357	5.53
1079.776	6.23
1080.194	5.7
1080.612	6.15
1081.031	5.24
1081.449	5.35
1081.867	4.55
1082.285	5.67
1082.704	5.62
1083.122	5.27
1083.54	5.96
1083.958	5.83
1084.376	5.47
1084.794	6.78
1085.212	5.08
1085.63	5.32
1086.048	5.82
1086.466	5.32
1086.884	6.27
1087.302	5.35
1087.72	6.2
1088.138	5.99
1088.555	5.75
1088.973	5.77
1089.391	5.3
1089.809	6.01
1090.226	5.52
1090.644	5.8
1091.062	5.84
1091.479	5.99
1091.897	5.85
1092.314	5.52
1092.732	6.06
1093.15	4.98
1093.567	5.73
1093.984	5.59
1094.402	6.72
1094.819	5.45
1095.237	5.21
1095.654	5.34
1096.071	5.71
1096.488	6.83
1096.906	5.87
1097.323	6.15
1097.74	5.6
1098.157	5.56
1098.574	5.86
1098.991	6.08
1099.409	5.87
1099.826	4.34
1100.243	5.92
1100.66	5.35
1101.077	6.56
1101.494	5.95
1101.91	5.68
1102.327	5.63
1102.744	6.04
1103.161	4.81
1103.578	6.66
1103.994	5.73
1104.411	5.68
1104.828	4.68
1105.245	5.37
1105.661	6.69
1106.078	6.04
1106.494	5.56
1106.911	5.23
1107.328	5.28
1107.744	4.18
1108.161	6.41
1108.577	5.79
1108.993	5.61
1109.41	6.61
1109.826	6
1110.242	4.85
1110.659	5.21
1111.075	4.92
1111.491	3.75
1111.908	5.64
1112.324	5.51
1112.74	-11.06
1113.156	5.2
1113.572	4.13
1113.988	6.96
1114.404	4.6
1114.82	4.72
1115.236	6.74
1115.652	4.22
1116.068	5.98
1116.484	4.43
1116.9	6.37
1117.316	5.51
1117.732	-13.04
1118.147	-4.76
1118.563	900
1118.979	100
