Data from JCR0012_WhiteVentral_Reflection_00001.txt Node
Date: Fri Jul 31 16:10:18 ACST 2020
User: Stacey Dix
Spectrometer: MAYP113282
Scans to average: 1
Trigger mode: 0
Integration Time (sec): 1.000000E-1
Electric dark correction enabled: true
Boxcar width: 0
XAxis mode: Wavelengths
Number of Pixels in Spectrum: 2068
>>>>>Begin Spectral Data<<<<<
198.791	762.5
199.266	-3.57
199.74	290
200.215	-925
200.69	-11.31
201.164	-9.28
201.639	-14.14
202.114	11.99
202.588	5.94
203.063	5.5
203.537	2.71
204.012	12.68
204.486	-7.21
204.961	-10
205.435	16.94
205.909	11.61
206.384	-10
206.858	8.58
207.332	8.27
207.807	11.22
208.281	-2.98
208.755	-7.19
209.229	11.57
209.703	6.81
210.177	5.93
210.651	24.62
211.126	1.9
211.6	18.06
212.074	-7.28
212.548	-0.19
213.021	19.35
213.495	17.06
213.969	9.05
214.443	11.82
214.917	11.39
215.391	27.28
215.864	16.14
216.338	14.69
216.812	-5.29
217.286	10.16
217.759	21.46
218.233	1.29
218.706	8.11
219.18	19.1
219.654	16.47
220.127	12.11
220.6	10.09
221.074	9.93
221.547	12.06
222.021	9.6
222.494	5.35
222.967	8.01
223.441	-0.06
223.914	0.59
224.387	8.73
224.86	0.28
225.334	10.05
225.807	4.96
226.28	-6.78
226.753	6.14
227.226	5.85
227.699	4.59
228.172	4.83
228.645	4.87
229.118	6.97
229.591	0.84
230.064	4.06
230.537	2.83
231.01	4.19
231.482	4.37
231.955	4.87
232.428	5.58
232.901	4.33
233.373	5.02
233.846	4.76
234.319	4.38
234.791	3.63
235.264	1.01
235.736	5.19
236.209	3.56
236.681	5.36
237.154	3.09
237.626	5.11
238.099	4.34
238.571	3.85
239.044	5.4
239.516	3.33
239.988	2.93
240.46	3.1
240.933	3.07
241.405	3.11
241.877	3.51
242.349	3.88
242.821	3.65
243.293	3.69
243.765	2.29
244.237	2.62
244.71	3.37
245.181	4.29
245.653	2.75
246.125	4.83
246.597	2.36
247.069	2.78
247.541	2.94
248.013	4.65
248.485	4.12
248.956	3.41
249.428	4.59
249.9	3.67
250.371	1.99
250.843	3.81
251.315	2.95
251.786	2.46
252.258	4.08
252.729	3.93
253.201	3.5
253.672	3.57
254.144	3.01
254.615	2.97
255.086	2.63
255.558	3.31
256.029	2.94
256.5	3.57
256.972	3.01
257.443	2.89
257.914	1.77
258.385	3.02
258.856	3.21
259.327	2.71
259.799	3.03
260.27	3.08
260.741	3.22
261.212	3.83
261.683	3.4
262.154	3.02
262.624	3.82
263.095	2.96
263.566	2.58
264.037	3.08
264.508	2.76
264.979	2.67
265.449	2.71
265.92	2.74
266.391	2.77
266.861	2.58
267.332	3.67
267.803	2.2
268.273	3.15
268.744	3.12
269.214	3.66
269.685	2.37
270.155	2.32
270.626	2.67
271.096	2.26
271.566	3.23
272.037	3.77
272.507	2.86
272.977	3.33
273.448	2.42
273.918	3.23
274.388	3.58
274.858	3.05
275.328	1.46
275.798	3.47
276.268	2.89
276.738	1.86
277.208	1.21
277.678	3.33
278.148	3.66
278.618	3.31
279.088	3.51
279.558	2.04
280.028	1.91
280.498	1.14
280.968	3.66
281.437	2.13
281.907	2.54
282.377	1.48
282.847	3.05
283.316	2.67
283.786	3
284.255	1.87
284.725	1.93
285.194	2.15
285.664	2.42
286.133	1.98
286.603	2.42
287.072	2.58
287.542	2.88
288.011	2.39
288.48	2.99
288.95	3.49
289.419	2.52
289.888	3.47
290.357	2.95
290.827	3.01
291.296	2.13
291.765	2.67
292.234	2.43
292.703	2.81
293.172	2.58
293.641	2.54
294.11	2.8
294.579	2.95
295.048	2.37
295.517	2.39
295.986	1.87
296.455	3.66
296.923	2.57
297.392	2.76
297.861	2.85
298.33	2.48
298.798	3.15
299.267	2.73
299.736	2.02
300.204	2.46
300.673	3.09
301.141	2.5
301.61	3.6
302.079	3.47
302.547	1.75
303.015	2.6
303.484	2.99
303.952	2.69
304.421	2.12
304.889	2.37
305.357	1.76
305.825	1.38
306.294	3.28
306.762	2.71
307.23	2.61
307.698	1.95
308.166	2.73
308.634	2.04
309.103	2.61
309.571	2.54
310.039	2.02
310.507	3.51
310.975	2.54
311.442	3.07
311.91	3.32
312.378	2.76
312.846	2.25
313.314	3.42
313.782	3.17
314.249	3.07
314.717	1.92
315.185	3.26
315.652	3.68
316.12	2.23
316.588	2.2
317.055	2.78
317.523	3.19
317.99	1.47
318.458	3.67
318.925	3.54
319.393	2.43
319.86	2.94
320.328	2.8
320.795	3.56
321.262	3.74
321.73	2.63
322.197	2.8
322.664	4.7
323.131	3.29
323.598	3.72
324.066	3.78
324.533	5.18
325	6.3
325.467	6.04
325.934	6.11
326.401	6.56
326.868	6.65
327.335	7.87
327.802	8.24
328.269	7.22
328.735	8.77
329.202	8.88
329.669	9.24
330.136	8.94
330.603	9.77
331.069	10.68
331.536	10.54
332.003	10.82
332.469	10.99
332.936	10.57
333.402	10.31
333.869	10.87
334.336	13.15
334.802	11.58
335.268	12.36
335.735	12.49
336.201	13.41
336.668	13.19
337.134	12.55
337.6	13.44
338.067	12.83
338.533	12.45
338.999	12.3
339.465	12.06
339.931	13.06
340.398	14.37
340.864	11.8
341.33	12.03
341.796	11.33
342.262	12.8
342.728	12.07
343.194	12.73
343.66	11.67
344.126	11.78
344.592	11.51
345.057	11.51
345.523	11.9
345.989	11.33
346.455	11.15
346.921	12.25
347.386	12.1
347.852	11.93
348.318	11.79
348.783	11.33
349.249	12.48
349.714	12.46
350.18	12.41
350.645	12.91
351.111	12.05
351.576	12.5
352.042	10.96
352.507	13.12
352.973	11.23
353.438	12.22
353.903	12.21
354.369	11.21
354.834	12.86
355.299	11.61
355.764	12.76
356.229	12.63
356.695	12.2
357.16	11.76
357.625	12.6
358.09	12.66
358.555	10.49
359.02	12.79
359.485	12.33
359.95	11.42
360.415	13.23
360.879	12.42
361.344	13.3
361.809	13.73
362.274	13.19
362.739	9.69
363.203	13.29
363.668	11.48
364.133	11.74
364.597	13.64
365.062	13.15
365.527	12.46
365.991	12.98
366.456	13.12
366.92	13.93
367.385	13.94
367.849	11.92
368.314	14.2
368.778	13.85
369.242	13.06
369.707	12.3
370.171	12.72
370.635	11.86
371.1	11.15
371.564	13.45
372.028	12.93
372.492	12.31
372.956	14.16
373.42	13.27
373.884	14.1
374.348	13.74
374.812	12.94
375.276	13.88
375.74	15
376.204	15.78
376.668	14.21
377.132	14.11
377.596	15.56
378.06	13.53
378.524	14.17
378.987	13.78
379.451	13.65
379.915	13.57
380.378	13.6
380.842	14.91
381.306	14.26
381.769	17.2
382.233	15.1
382.696	14.55
383.16	14.45
383.623	15.48
384.087	14.12
384.55	15.06
385.014	14.07
385.477	14.6
385.94	14.62
386.404	15.66
386.867	14.66
387.33	14.24
387.793	13.86
388.256	16.28
388.72	14.51
389.183	15.48
389.646	16.05
390.109	15.69
390.572	15.21
391.035	14.05
391.498	14.37
391.961	14.27
392.424	14.95
392.887	14.89
393.35	16.15
393.812	14.93
394.275	15.34
394.738	15.67
395.201	15.44
395.664	14.98
396.126	16.32
396.589	15.55
397.052	14.89
397.514	14.92
397.977	15.84
398.439	14.8
398.902	13.78
399.364	14.41
399.827	15.16
400.289	15.43
400.752	15.6
401.214	13.2
401.676	15.87
402.139	15.5
402.601	14.55
403.063	15.34
403.525	15.11
403.988	15.83
404.45	15.12
404.912	14.62
405.374	14.35
405.836	13.53
406.298	13.35
406.76	15.5
407.222	12.97
407.684	15.72
408.146	16.07
408.608	14.47
409.07	13.79
409.532	13.83
409.994	15.34
410.456	13.73
410.917	14.94
411.379	14.99
411.841	15.53
412.303	14.75
412.764	14.36
413.226	15.33
413.687	13.92
414.149	14.91
414.611	14.58
415.072	13.77
415.534	15.49
415.995	15.11
416.457	15.34
416.918	16.22
417.379	15.84
417.841	14.76
418.302	15.84
418.763	14.72
419.225	14.21
419.686	15.31
420.147	14.43
420.608	15.94
421.069	14.75
421.53	16.02
421.991	14.73
422.453	15.14
422.914	15.83
423.375	15.05
423.836	15.19
424.297	15.2
424.757	15.34
425.218	16.07
425.679	15.81
426.14	16.36
426.601	15.73
427.062	16.02
427.522	17.29
427.983	16.48
428.444	16.61
428.904	15.71
429.365	17.52
429.826	13.98
430.286	15.64
430.747	14.64
431.207	16.02
431.668	16.15
432.128	17.3
432.589	16.64
433.049	14.66
433.509	19.21
433.97	15.01
434.43	17.83
434.89	16.6
435.351	16.99
435.811	16.67
436.271	18.45
436.731	15.68
437.191	15.96
437.651	17.15
438.112	19.33
438.572	15.48
439.032	18.21
439.492	18.28
439.952	16.33
440.412	15.86
440.871	19.86
441.331	17.35
441.791	16.38
442.251	17.87
442.711	17.42
443.171	19.41
443.63	17.31
444.09	18.28
444.55	16.27
445.009	18.07
445.469	20.26
445.929	17
446.388	17.53
446.848	18.54
447.307	16.6
447.767	23.07
448.226	18.96
448.686	18.13
449.145	17.19
449.604	18.13
450.064	18.7
450.523	17.36
450.982	18.23
451.442	19.41
451.901	19.75
452.36	19.98
452.819	17.89
453.278	18.34
453.737	18.95
454.197	18.62
454.656	19.95
455.115	19.58
455.574	18.2
456.033	17.46
456.492	17.57
456.95	19.9
457.409	19.02
457.868	18.63
458.327	20.18
458.786	18.42
459.245	18.72
459.703	17.86
460.162	18.65
460.621	18.99
461.079	17.64
461.538	16.93
461.997	19.19
462.455	19.78
462.914	18.06
463.372	20.11
463.831	18.74
464.289	19.4
464.748	18.43
465.206	20.01
465.664	19.82
466.123	18.88
466.581	19.55
467.039	18.44
467.497	19.17
467.956	18.97
468.414	21.59
468.872	18.98
469.33	20.52
469.788	22.5
470.246	20.16
470.704	21.49
471.162	21.31
471.62	17.31
472.078	20.76
472.536	19.02
472.994	18.79
473.452	19
473.91	18.01
474.368	18.22
474.826	20.61
475.283	20.62
475.741	20.47
476.199	20.74
476.656	18.62
477.114	21.75
477.572	17.82
478.029	18.49
478.487	19.65
478.944	20.01
479.402	20.16
479.859	18.72
480.317	20.01
480.774	18.55
481.232	19.53
481.689	20.42
482.146	19.79
482.604	20.26
483.061	19.16
483.518	18.79
483.975	17.64
484.433	19.54
484.89	19.88
485.347	19.76
485.804	20.16
486.261	17.81
486.718	20.83
487.175	20.03
487.632	20.94
488.089	21.49
488.546	20.51
489.003	20.24
489.46	18.37
489.917	17.41
490.373	19.51
490.83	18.62
491.287	19.39
491.744	20.71
492.2	18.59
492.657	17.75
493.114	18.83
493.57	21.19
494.027	19.66
494.484	23.32
494.94	18.17
495.397	22.48
495.853	20.35
496.31	19.17
496.766	21.96
497.222	18.98
497.679	17.47
498.135	20.92
498.591	21.18
499.048	18
499.504	16.66
499.96	18.85
500.416	20.15
500.872	21.16
501.329	18.93
501.785	21.22
502.241	20.77
502.697	17.14
503.153	20.45
503.609	19.34
504.065	21.43
504.521	18.78
504.977	21.52
505.432	20.54
505.888	21.59
506.344	18.32
506.8	21.72
507.256	20.02
507.711	20.2
508.167	17.68
508.623	20.07
509.078	17.43
509.534	19.41
509.99	21.89
510.445	20.29
510.901	18.39
511.356	22.11
511.812	21.21
512.267	19.69
512.722	18.86
513.178	19.64
513.633	21.51
514.089	20.44
514.544	20.66
514.999	18.88
515.454	18.67
515.91	20.29
516.365	20.2
516.82	19.88
517.275	21.91
517.73	22.01
518.185	18.89
518.64	19.43
519.095	21.6
519.55	20.93
520.005	21.48
520.46	17.66
520.915	21.16
521.37	20.25
521.825	20.32
522.28	19.8
522.734	19.07
523.189	21.05
523.644	21.37
524.099	20.07
524.553	20.55
525.008	21.71
525.462	21.77
525.917	19.31
526.372	20.25
526.826	21.92
527.281	21.04
527.735	20.58
528.19	20.42
528.644	21.08
529.098	19.05
529.553	20.7
530.007	21.1
530.461	20.45
530.916	19.76
531.37	20.09
531.824	21.75
532.278	20.57
532.732	20.47
533.186	22.03
533.641	20.09
534.095	21.69
534.549	20.76
535.003	21.21
535.457	20.83
535.911	19.1
536.365	19.45
536.818	20.25
537.272	19.13
537.726	20.85
538.18	17.28
538.634	19.37
539.087	20.74
539.541	20.19
539.995	18.22
540.449	21.2
540.902	20.62
541.356	18.81
541.809	21.88
542.263	18.91
542.716	20.04
543.17	20.61
543.623	21.35
544.077	19.28
544.53	20.13
544.984	21.68
545.437	20.64
545.89	19.88
546.344	18.83
546.797	21.56
547.25	20.96
547.703	21.1
548.157	20.13
548.61	19.99
549.063	20.14
549.516	19.21
549.969	18.84
550.422	20.69
550.875	20.18
551.328	21.8
551.781	20.21
552.234	21.41
552.687	17.81
553.14	19.94
553.592	20.59
554.045	20.26
554.498	20.39
554.951	23.07
555.404	20.09
555.856	21.68
556.309	22.67
556.762	21.87
557.214	20.58
557.667	21.05
558.119	20.16
558.572	20.82
559.024	21.26
559.477	21.7
559.929	19.4
560.382	21.31
560.834	22.64
561.286	21.67
561.739	20.65
562.191	21.99
562.643	19.18
563.095	20.55
563.548	21.48
564	21.39
564.452	21.07
564.904	23.49
565.356	21
565.808	21.36
566.26	21.23
566.712	22.67
567.164	21.06
567.616	21.83
568.068	22.67
568.52	20.49
568.972	21.59
569.424	21.43
569.876	21.71
570.327	21.94
570.779	22
571.231	21.35
571.682	20.84
572.134	21.51
572.586	21.92
573.037	21.11
573.489	22.78
573.941	20.89
574.392	21.29
574.844	21.57
575.295	22.01
575.746	21.64
576.198	20.83
576.649	22.74
577.101	20.91
577.552	21.93
578.003	21.92
578.454	21.55
578.906	20.14
579.357	21.52
579.808	21.69
580.259	20.9
580.71	21.23
581.161	20.6
581.612	21.46
582.064	20.72
582.515	21.48
582.965	21.58
583.416	22.12
583.867	20.37
584.318	21.39
584.769	22.09
585.22	21.82
585.671	21.72
586.122	21.31
586.572	20.44
587.023	21.77
587.474	20.98
587.924	21.65
588.375	21.75
588.826	21.51
589.276	21.93
589.727	22.01
590.177	22.67
590.628	21.12
591.078	22.28
591.529	21.33
591.979	22.67
592.429	21.5
592.88	21.15
593.33	21.59
593.78	20.73
594.231	22.31
594.681	21.05
595.131	21.76
595.581	23.73
596.031	21.42
596.481	22.42
596.932	22.18
597.382	22.06
597.832	23.15
598.282	22.08
598.732	21.91
599.182	22.15
599.632	22.06
600.081	21.16
600.531	22.64
600.981	20.63
601.431	22.68
601.881	21.44
602.33	21.36
602.78	20.92
603.23	22.1
603.679	22.17
604.129	22.71
604.579	22.11
605.028	22.68
605.478	21.36
605.927	22.42
606.377	23.09
606.826	21.4
607.276	22.7
607.725	21.34
608.175	23.04
608.624	20.77
609.073	22.18
609.522	21.56
609.972	21.89
610.421	21.64
610.87	21.53
611.319	21.69
611.768	22.53
612.218	22.56
612.667	23.28
613.116	21.96
613.565	21.19
614.014	21.26
614.463	22.51
614.912	22.83
615.361	21.15
615.81	20.83
616.258	21.89
616.707	23.3
617.156	20.92
617.605	22.46
618.054	22.45
618.502	20.27
618.951	22.05
619.4	22.24
619.848	21.65
620.297	22.63
620.745	22.14
621.194	21.73
621.642	20.08
622.091	21.18
622.539	22.16
622.988	21.89
623.436	21.9
623.885	21.37
624.333	22.63
624.781	22.38
625.23	22.17
625.678	21.36
626.126	21.9
626.574	22.59
627.022	22.91
627.471	21.43
627.919	22.95
628.367	21.69
628.815	22.3
629.263	22.12
629.711	20.78
630.159	22.38
630.607	21.6
631.055	22.36
631.503	22.21
631.95	22.18
632.398	21.09
632.846	21.84
633.294	21.97
633.742	21.89
634.189	22.34
634.637	21.86
635.085	21.72
635.532	21.91
635.98	23.28
636.427	21.52
636.875	21.88
637.323	21.58
637.77	22.19
638.217	20.71
638.665	21.97
639.112	22.41
639.56	21.6
640.007	22.65
640.454	22.14
640.902	22.09
641.349	22.48
641.796	22.2
642.243	22.22
642.69	22.65
643.138	22.19
643.585	20.57
644.032	22.27
644.479	23.38
644.926	22.99
645.373	21.62
645.82	21.6
646.267	22.57
646.714	21.64
647.161	23.04
647.607	22.41
648.054	21.81
648.501	21.78
648.948	21.93
649.395	22.38
649.841	22.21
650.288	22.81
650.735	21.83
651.181	22.26
651.628	21.98
652.075	22.2
652.521	21.95
652.968	21.21
653.414	22.16
653.861	22.38
654.307	22.4
654.753	22
655.2	22.14
655.646	22.98
656.092	22.38
656.539	23.15
656.985	22.54
657.431	23.3
657.877	21.84
658.324	21.91
658.77	22.66
659.216	21.38
659.662	21.85
660.108	23.08
660.554	21.82
661	21.11
661.446	22.16
661.892	22.01
662.338	22.35
662.784	22.65
663.23	21.47
663.675	22.26
664.121	22.35
664.567	22.03
665.013	22.67
665.458	22.77
665.904	22.43
666.35	22.88
666.795	22.63
667.241	21.37
667.687	22.65
668.132	22.83
668.578	23.08
669.023	22.2
669.469	22.04
669.914	22.27
670.359	23.11
670.805	22.58
671.25	21.48
671.695	22.65
672.141	22.4
672.586	22.93
673.031	22.84
673.476	22.62
673.922	21.6
674.367	22.08
674.812	21.77
675.257	22.54
675.702	21.54
676.147	21.62
676.592	21.51
677.037	22.18
677.482	22.39
677.927	21.75
678.372	22.27
678.817	22.06
679.261	22.82
679.706	22.84
680.151	21.02
680.596	22.4
681.04	22.68
681.485	22.68
681.93	22.3
682.374	23.08
682.819	22.77
683.264	22.53
683.708	22.22
684.153	21.6
684.597	22.55
685.042	22.82
685.486	22.55
685.93	21.41
686.375	23.26
686.819	22.04
687.263	22.68
687.708	22.39
688.152	23.07
688.596	21.93
689.04	22.56
689.485	22.81
689.929	22.18
690.373	22.46
690.817	22.72
691.261	22.56
691.705	21.75
692.149	22.13
692.593	22.73
693.037	21.55
693.481	22.61
693.925	22.78
694.369	23.12
694.812	22.7
695.256	22.16
695.7	22.33
696.144	23.4
696.587	22.91
697.031	22.24
697.475	22.56
697.918	22.07
698.362	21.75
698.806	21.8
699.249	22.17
699.693	22.54
700.136	21.96
700.58	23.16
701.023	22.26
701.466	23.01
701.91	22.65
702.353	23.14
702.796	21.8
703.24	22.65
703.683	22.58
704.126	22.8
704.569	22.05
705.013	22.29
705.456	22.29
705.899	22.44
706.342	23.42
706.785	22.61
707.228	22.43
707.671	22.2
708.114	22.14
708.557	22.39
709	21.98
709.443	22.98
709.886	22.96
710.328	22.26
710.771	22.25
711.214	22.26
711.657	22.23
712.099	22.19
712.542	22.16
712.985	22.08
713.427	23.25
713.87	22.18
714.313	22.63
714.755	23.3
715.198	22.9
715.64	22.72
716.083	22.22
716.525	22.39
716.967	22.12
717.41	21.88
717.852	22.66
718.295	22.75
718.737	22.75
719.179	21.65
719.621	23.2
720.063	22.29
720.506	22.39
720.948	21.97
721.39	22.64
721.832	21.7
722.274	22.6
722.716	22.62
723.158	22.29
723.6	23.04
724.042	23
724.484	22.23
724.926	22.26
725.368	22.68
725.81	21.43
726.251	22.41
726.693	22.9
727.135	22.53
727.577	21.4
728.018	22.5
728.46	22.48
728.902	21.42
729.343	21.93
729.785	22.36
730.226	22.79
730.668	22.23
731.109	22.08
731.551	22.41
731.992	21.95
732.434	22.4
732.875	22.62
733.316	21.62
733.758	22.51
734.199	22.04
734.64	22.14
735.081	22.02
735.523	21.51
735.964	22.33
736.405	23.19
736.846	22.24
737.287	22.45
737.728	22.22
738.169	22.04
738.61	22.3
739.051	22.22
739.492	22.29
739.933	22.68
740.374	22.67
740.815	22.06
741.256	22.76
741.696	21.91
742.137	21.93
742.578	22.52
743.019	22.46
743.459	21.47
743.9	22.49
744.341	22.1
744.781	21.94
745.222	22.08
745.662	22.25
746.103	22.77
746.543	21.58
746.984	23.38
747.424	22.27
747.865	23.39
748.305	22.56
748.745	22.03
749.186	21.87
749.626	22.74
750.066	22.52
750.506	22.75
750.947	21.88
751.387	22.29
751.827	22.35
752.267	22.61
752.707	21.92
753.147	22.34
753.587	22.64
754.027	23.32
754.467	22.24
754.907	22.24
755.347	22.21
755.787	22.01
756.227	22.22
756.667	22.36
757.107	22.74
757.546	22.22
757.986	21.99
758.426	22.98
758.865	22.78
759.305	22.31
759.745	22.53
760.184	22.64
760.624	22.07
761.063	21.57
761.503	22.59
761.943	21.98
762.382	22.45
762.821	22.55
763.261	22.4
763.7	23.03
764.14	23.1
764.579	21.98
765.018	21.95
765.457	22.4
765.897	21.78
766.336	22.64
766.775	22.48
767.214	22.2
767.653	22.27
768.092	22.4
768.531	22.23
768.97	22.33
769.409	22.46
769.848	21.88
770.287	22.7
770.726	22.62
771.165	22.42
771.604	22.57
772.043	22.73
772.482	21.84
772.92	22.67
773.359	22.9
773.798	22.07
774.237	22.46
774.675	22.08
775.114	22.68
775.553	22.1
775.991	22.79
776.43	22.32
776.868	22.96
777.307	22.18
777.745	22.46
778.184	22.11
778.622	22.25
779.06	22.4
779.499	22.42
779.937	22.21
780.375	22.05
780.814	22.48
781.252	22.68
781.69	22.36
782.128	22.47
782.566	22.36
783.004	22.19
783.443	22.12
783.881	22.1
784.319	22.98
784.757	22.35
785.195	22.35
785.633	22.95
786.071	22.18
786.508	22.15
786.946	21.64
787.384	23.37
787.822	22.62
788.26	21.71
788.697	22.21
789.135	22.4
789.573	22.25
790.011	22.28
790.448	22.12
790.886	21.88
791.323	23.16
791.761	22.31
792.198	22.53
792.636	22.12
793.073	22.06
793.511	21.83
793.948	22.38
794.386	22.18
794.823	22.38
795.26	21.72
795.698	22.59
796.135	22.75
796.572	22.07
797.009	22.34
797.446	22.5
797.884	22.82
798.321	22.89
798.758	22.34
799.195	22.46
799.632	22.44
800.069	21.87
800.506	22.11
800.943	21.85
801.38	22.88
801.817	23.29
802.254	21.82
802.69	22.07
803.127	22.31
803.564	22.29
804.001	22.23
804.438	22.22
804.874	22.28
805.311	22.26
805.748	22.14
806.184	22.92
806.621	22.63
807.057	21.98
807.494	22.46
807.93	22.44
808.367	22.46
808.803	22.59
809.24	22.43
809.676	22.05
810.112	22.38
810.549	22.45
810.985	22.71
811.421	22.72
811.857	22.23
812.294	22.44
812.73	22.12
813.166	22.6
813.602	22.85
814.038	22.58
814.474	22.35
814.91	22.42
815.346	22.84
815.782	22.53
816.218	22.58
816.654	22.05
817.09	22.56
817.526	22.68
817.962	22.35
818.398	22.21
818.833	22.67
819.269	22.57
819.705	22.68
820.141	22.25
820.576	22.81
821.012	22.98
821.447	22.29
821.883	22.12
822.319	22.19
822.754	22.12
823.19	22.67
823.625	21.48
824.061	22.36
824.496	22.78
824.931	22.49
825.367	22.6
825.802	21.9
826.237	22.64
826.673	21.98
827.108	22.4
827.543	22.32
827.978	21.93
828.413	22.22
828.849	22.33
829.284	22.51
829.719	22.53
830.154	22.58
830.589	22.43
831.024	22.58
831.459	22.13
831.894	22.17
832.329	22.74
832.763	22.62
833.198	22.34
833.633	22.02
834.068	22.66
834.503	22.47
834.937	22.95
835.372	22.52
835.807	22.94
836.241	22.29
836.676	23.23
837.111	22.64
837.545	22.97
837.98	22.19
838.414	22.34
838.849	22.3
839.283	22.25
839.717	22.67
840.152	22.82
840.586	22.3
841.021	22.78
841.455	22.26
841.889	22.45
842.323	22.6
842.758	22.8
843.192	22.69
843.626	22.46
844.06	23.35
844.494	23.11
844.928	22.25
845.362	22.55
845.796	22.22
846.23	22.11
846.664	22.47
847.098	22.84
847.532	22.21
847.966	22.35
848.4	22.77
848.834	22.6
849.267	22.76
849.701	22.26
850.135	22.37
850.569	22.32
851.002	22.21
851.436	22.32
851.87	21.84
852.303	23.17
852.737	22.85
853.17	22.83
853.604	22.55
854.037	22.62
854.471	22.52
854.904	22.43
855.337	22.57
855.771	21.76
856.204	22.54
856.637	22.38
857.071	22.78
857.504	22.84
857.937	22.37
858.37	22.3
858.804	22.92
859.237	22.67
859.67	22.45
860.103	23.05
860.536	22.45
860.969	22.63
861.402	22.4
861.835	22.77
862.268	22.33
862.701	22.75
863.134	22.54
863.566	22.95
863.999	23.01
864.432	22.81
864.865	22.46
865.298	22.93
865.73	22.86
866.163	22.55
866.596	22.71
867.028	22.7
867.461	22.95
867.893	22.42
868.326	23.19
868.758	22.31
869.191	22.4
869.623	23.04
870.056	22.5
870.488	22.23
870.92	23.15
871.353	22.47
871.785	22.64
872.217	22.46
872.65	22.23
873.082	22.74
873.514	22.54
873.946	22.93
874.378	22.98
874.81	22.73
875.243	22.66
875.675	23.01
876.107	23
876.539	22.57
876.971	22.28
877.403	23.06
877.834	22.76
878.266	22.5
878.698	22.85
879.13	22.66
879.562	22.44
879.994	23.31
880.425	22.93
880.857	23.05
881.289	22.94
881.72	22.71
882.152	22.75
882.584	22.06
883.015	22.27
883.447	22.57
883.878	22.59
884.31	22.44
884.741	22.52
885.173	22.68
885.604	23.04
886.035	23
886.467	23.29
886.898	23.11
887.329	23.13
887.76	23.09
888.192	22.88
888.623	22.49
889.054	22.58
889.485	22.48
889.916	22.37
890.347	22.82
890.778	22.89
891.209	22.95
891.64	22.56
892.071	22.86
892.502	22.94
892.933	22.81
893.364	22.53
893.795	22.54
894.226	22.56
894.657	22.69
895.087	22.87
895.518	23.14
895.949	22.94
896.38	22.66
896.81	22.27
897.241	22.72
897.671	22.88
898.102	22.89
898.533	22.91
898.963	22.87
899.394	23.02
899.824	22.95
900.254	22.98
900.685	22.74
901.115	22.86
901.546	22.79
901.976	22.84
902.406	23.02
902.836	22.91
903.267	22.65
903.697	22.76
904.127	23.13
904.557	22.92
904.987	22.84
905.417	23.01
905.847	23.32
906.277	22.7
906.707	22.69
907.137	22.7
907.567	23.11
907.997	22.71
908.427	22.78
908.857	22.79
909.287	22.45
909.717	22.68
910.146	22.6
910.576	22.64
911.006	22.76
911.436	22.85
911.865	22.68
912.295	23.04
912.724	23
913.154	23.22
913.584	22.6
914.013	22.62
914.443	22.77
914.872	22.48
915.302	22.7
915.731	22.67
916.16	23.1
916.59	22.97
917.019	22.74
917.448	23.09
917.878	23.3
918.307	22.33
918.736	22.45
919.165	22.72
919.594	22.75
920.023	23.01
920.452	22.72
920.882	23.36
921.311	22.91
921.74	23.51
922.169	23.02
922.597	22.53
923.026	23.26
923.455	23.41
923.884	23.25
924.313	23.15
924.742	22.63
925.171	23.46
925.599	22.69
926.028	22.93
926.457	22.8
926.885	23.09
927.314	22.8
927.743	23.08
928.171	22.57
928.6	22.96
929.028	22.66
929.457	22.98
929.885	23.26
930.314	23.17
930.742	22.8
931.17	22.89
931.599	23.11
932.027	23.19
932.455	23.07
932.884	22.66
933.312	22.68
933.74	22.81
934.168	23.11
934.596	23.12
935.025	22.96
935.453	23.04
935.881	22.83
936.309	23.16
936.737	22.95
937.165	23.1
937.593	22.74
938.021	23.18
938.449	22.7
938.876	23.17
939.304	23
939.732	22.96
940.16	22.65
940.588	22.99
941.015	23.06
941.443	23.44
941.871	23.1
942.298	22.91
942.726	22.23
943.154	22.55
943.581	22.93
944.009	22.83
944.436	23.05
944.864	23.04
945.291	23.47
945.718	22.92
946.146	23.13
946.573	22.69
947.001	22.85
947.428	22.46
947.855	22.96
948.282	23.74
948.71	22.68
949.137	23.17
949.564	23.59
949.991	23.21
950.418	23.56
950.845	23.11
951.272	22.42
951.699	23.22
952.126	23.03
952.553	23.05
952.98	23.29
953.407	23.23
953.834	23.13
954.261	22.66
954.688	22.76
955.114	23.4
955.541	23.24
955.968	22.95
956.395	23.03
956.821	22.71
957.248	22.76
957.674	22.94
958.101	22.54
958.528	23.08
958.954	22.66
959.381	23.11
959.807	23.1
960.234	23.39
960.66	23.09
961.086	23.26
961.513	22.73
961.939	23.19
962.365	23.12
962.792	22.76
963.218	22.93
963.644	22.94
964.07	23.1
964.496	23
964.923	22.76
965.349	23.26
965.775	23.57
966.201	23.09
966.627	23.41
967.053	23.15
967.479	23.42
967.905	23.25
968.331	23.05
968.756	23.06
969.182	23.1
969.608	23.37
970.034	22.87
970.46	22.62
970.885	23.32
971.311	23.46
971.737	23.24
972.162	22.99
972.588	23.02
973.014	22.7
973.439	22.81
973.865	23.22
974.29	23.27
974.716	23.53
975.141	22.95
975.567	22.96
975.992	23.41
976.417	23.09
976.843	23.08
977.268	23.44
977.693	22.98
978.119	22.92
978.544	23.29
978.969	23.32
979.394	23.36
979.819	23.18
980.244	23.04
980.669	23.43
981.095	22.92
981.52	23.47
981.945	23.18
982.369	23.21
982.794	23.17
983.219	23.27
983.644	23.16
984.069	23.35
984.494	23.44
984.919	23.22
985.343	23.07
985.768	23.75
986.193	23.43
986.618	23.12
987.042	22.97
987.467	22.95
987.891	23.19
988.316	23.41
988.741	23.36
989.165	23.14
989.59	23.26
990.014	23.69
990.438	23.52
990.863	23.26
991.287	23.23
991.712	23.24
992.136	23.63
992.56	23.14
992.984	23.63
993.409	23.22
993.833	22.89
994.257	23.14
994.681	23.02
995.105	23.4
995.529	23.09
995.953	23.11
996.377	23.22
996.801	22.92
997.225	23.65
997.649	23.91
998.073	23.23
998.497	23.45
998.921	23.22
999.345	23.53
999.769	23.45
1000.192	23.21
1000.616	23.42
1001.04	23.36
1001.464	23.44
1001.887	23.28
1002.311	23.47
1002.734	23.55
1003.158	22.9
1003.582	23.54
1004.005	23.64
1004.429	23.67
1004.852	23.22
1005.275	23.32
1005.699	23.03
1006.122	23.36
1006.546	23.5
1006.969	23.93
1007.392	23.77
1007.815	23.62
1008.239	23.18
1008.662	23.45
1009.085	23.29
1009.508	23.21
1009.931	23.4
1010.354	23.59
1010.778	23.38
1011.201	23.54
1011.624	23.54
1012.047	23.42
1012.469	23.76
1012.892	23.95
1013.315	23.67
1013.738	23.6
1014.161	23.09
1014.584	23.85
1015.007	23.75
1015.429	23.33
1015.852	23.52
1016.275	23.55
1016.697	23.39
1017.12	23.5
1017.543	24.04
1017.965	23.38
1018.388	23.39
1018.81	23.44
1019.233	23.42
1019.655	23.47
1020.078	23.53
1020.5	23.34
1020.922	23.23
1021.345	23.43
1021.767	23.89
1022.189	23.33
1022.612	23.75
1023.034	23.55
1023.456	23.93
1023.878	23.91
1024.301	23.72
1024.723	23.49
1025.145	23.38
1025.567	23.23
1025.989	23.9
1026.411	23.38
1026.833	23.43
1027.255	23.31
1027.677	23.65
1028.099	23.36
1028.52	23.55
1028.942	23.63
1029.364	23.34
1029.786	23.93
1030.208	23.17
1030.629	23.63
1031.051	23.26
1031.473	23.42
1031.894	23.79
1032.316	23.31
1032.738	23.49
1033.159	23.08
1033.581	23.77
1034.002	23.14
1034.424	23.63
1034.845	23.43
1035.267	23.85
1035.688	23.25
1036.109	23.47
1036.531	23.29
1036.952	23.5
1037.373	23.84
1037.794	23.43
1038.216	23.41
1038.637	23.76
1039.058	23.67
1039.479	23.53
1039.9	23.86
1040.321	23.31
1040.742	23.66
1041.163	23.67
1041.584	23.58
1042.005	23.13
1042.426	23.4
1042.847	23.65
1043.268	23.3
1043.689	23.21
1044.11	23.34
1044.53	23.64
1044.951	23.44
1045.372	23.81
1045.793	23.96
1046.213	23.37
1046.634	24.09
1047.055	24.21
1047.475	23.82
1047.896	23.81
1048.316	23.33
1048.737	24.09
1049.157	24.15
1049.578	23.82
1049.998	23.59
1050.419	22.81
1050.839	23.75
1051.259	23.93
1051.68	23.84
1052.1	23.86
1052.52	24.03
1052.94	23.72
1053.361	23.57
1053.781	23.76
1054.201	22.79
1054.621	24.37
1055.041	23.89
1055.461	23.65
1055.881	23.55
1056.301	24.13
1056.721	24.04
1057.141	23.73
1057.561	24.13
1057.981	23.57
1058.401	23.83
1058.82	24.57
1059.24	22.95
1059.66	24.19
1060.08	23.97
1060.499	24.05
1060.919	23.75
1061.339	24.4
1061.758	23.36
1062.178	23.57
1062.598	23.95
1063.017	23.75
1063.437	23.96
1063.856	23.79
1064.276	23.52
1064.695	23.47
1065.114	24.17
1065.534	23.17
1065.953	23.38
1066.372	23.7
1066.792	23.72
1067.211	23.96
1067.63	23.77
1068.049	24.06
1068.469	24.17
1068.888	24.15
1069.307	23.72
1069.726	24.09
1070.145	23.88
1070.564	24.09
1070.983	24.1
1071.402	23
1071.821	23.67
1072.24	22.71
1072.659	23.98
1073.078	24.03
1073.496	23.66
1073.915	24.58
1074.334	24.16
1074.753	24.04
1075.171	23.61
1075.59	23.38
1076.009	24.31
1076.427	23.92
1076.846	23.1
1077.265	23.17
1077.683	22.93
1078.102	24.17
1078.52	22.55
1078.939	24.02
1079.357	23.83
1079.776	23.56
1080.194	24.09
1080.612	24.5
1081.031	24.1
1081.449	23.32
1081.867	24.01
1082.285	24.37
1082.704	23.53
1083.122	24.01
1083.54	25.11
1083.958	24.4
1084.376	24.15
1084.794	23.99
1085.212	23.65
1085.63	24.21
1086.048	23.28
1086.466	24.88
1086.884	23.41
1087.302	23.57
1087.72	24.18
1088.138	23.93
1088.555	24.16
1088.973	23.33
1089.391	22.81
1089.809	23.87
1090.226	23.65
1090.644	22.49
1091.062	23.79
1091.479	23.47
1091.897	23.19
1092.314	23.46
1092.732	23.35
1093.15	23.22
1093.567	23.29
1093.984	23.78
1094.402	23.96
1094.819	23.51
1095.237	23.91
1095.654	23.7
1096.071	23.38
1096.488	24.83
1096.906	25.45
1097.323	25.25
1097.74	23.94
1098.157	23.48
1098.574	25.08
1098.991	22.79
1099.409	22.73
1099.826	23.24
1100.243	21.75
1100.66	23.19
1101.077	24.17
1101.494	24.09
1101.91	21.49
1102.327	23.07
1102.744	20.71
1103.161	21.25
1103.578	23.85
1103.994	23.97
1104.411	24.76
1104.828	21
1105.245	24.4
1105.661	22.43
1106.078	23.23
1106.494	24.25
1106.911	22.79
1107.328	22.48
1107.744	25.14
1108.161	22.12
1108.577	23.3
1108.993	23.29
1109.41	23.97
1109.826	22.07
1110.242	22.25
1110.659	22.6
1111.075	22.17
1111.491	24.94
1111.908	22.37
1112.324	21.36
1112.74	21.18
1113.156	22.16
1113.572	24.35
1113.988	21.38
1114.404	22.3
1114.82	24.64
1115.236	24.87
1115.652	21.68
1116.068	21.7
1116.484	17.43
1116.9	28.11
1117.316	24.81
1117.732	69.35
1118.147	67.31
1118.563	125
1118.979	59.37
