Data from JCR0034_Black1_Reflection_00003.txt Node
Date: Fri Jul 31 15:11:15 ACST 2020
User: Stacey Dix
Spectrometer: MAYP113282
Scans to average: 1
Trigger mode: 0
Integration Time (sec): 1.000000E-1
Electric dark correction enabled: true
Boxcar width: 0
XAxis mode: Wavelengths
Number of Pixels in Spectrum: 2068
>>>>>Begin Spectral Data<<<<<
198.791	0
199.266	38.89
199.74	33.33
200.215	166.67
200.69	33.33
201.164	6.92
201.639	32.89
202.114	22.76
202.588	23.98
203.063	37.83
203.537	19.3
204.012	15.56
204.486	19.44
204.961	6.31
205.435	43.45
205.909	21.04
206.384	22.12
206.858	19.3
207.332	-0.38
207.807	25.77
208.281	30.23
208.755	23.81
209.229	30.7
209.703	14.37
210.177	17.04
210.651	2.78
211.126	25.68
211.6	45.15
212.074	12.28
212.548	30.87
213.021	26.82
213.495	12.77
213.969	17.97
214.443	29.32
214.917	14.11
215.391	15.5
215.864	9.16
216.338	10.22
216.812	11.11
217.286	23.26
217.759	11.75
218.233	13.77
218.706	5.01
219.18	6.19
219.654	18.27
220.127	16
220.6	12.42
221.074	2.17
221.547	9.8
222.021	7.33
222.494	7.71
222.967	11.54
223.441	4.83
223.914	11.74
224.387	10.64
224.86	6.68
225.334	4.02
225.807	7.21
226.28	9.03
226.753	9.99
227.226	7.75
227.699	7.03
228.172	9.25
228.645	6.42
229.118	6.87
229.591	3.46
230.064	6.35
230.537	7.72
231.01	5.52
231.482	4.83
231.955	5.57
232.428	6.61
232.901	5.34
233.373	6.02
233.846	5.24
234.319	6.88
234.791	4.8
235.264	5.06
235.736	5.23
236.209	6.36
236.681	5.27
237.154	5.88
237.626	5.08
238.099	4.7
238.571	5.44
239.044	6.33
239.516	5.52
239.988	5.23
240.46	5.77
240.933	5.2
241.405	4.18
241.877	5.54
242.349	4.15
242.821	5.24
243.293	4.99
243.765	4.23
244.237	4.67
244.71	3.87
245.181	4.29
245.653	5.2
246.125	3.64
246.597	4.59
247.069	4.86
247.541	3.58
248.013	5.41
248.485	5.88
248.956	4.55
249.428	4.62
249.9	5.2
250.371	4.44
250.843	5.53
251.315	3.55
251.786	4.87
252.258	4.05
252.729	3.79
253.201	4.5
253.672	4.07
254.144	4.33
254.615	3.93
255.086	3.4
255.558	4.51
256.029	4.18
256.5	4.19
256.972	3.26
257.443	3.96
257.914	3.2
258.385	4.28
258.856	3.62
259.327	4.38
259.799	3.93
260.27	3.7
260.741	3.41
261.212	3.96
261.683	3.98
262.154	3.93
262.624	3.71
263.095	3.6
263.566	3.6
264.037	4.27
264.508	3.87
264.979	3.06
265.449	4.66
265.92	3.83
266.391	3.74
266.861	3.69
267.332	4.2
267.803	3.42
268.273	4.13
268.744	3.68
269.214	3.25
269.685	3.98
270.155	3.83
270.626	3.07
271.096	3.14
271.566	3.49
272.037	3.06
272.507	4.11
272.977	4.2
273.448	3.8
273.918	2.54
274.388	3
274.858	3.81
275.328	4.11
275.798	3.82
276.268	4.7
276.738	3.6
277.208	4.14
277.678	4.37
278.148	4.11
278.618	3.76
279.088	4.36
279.558	3.21
280.028	3.6
280.498	3.21
280.968	3.83
281.437	4.31
281.907	3.23
282.377	2.78
282.847	3.45
283.316	2.71
283.786	4.22
284.255	3.49
284.725	3.37
285.194	3.58
285.664	4.09
286.133	3.11
286.603	3.1
287.072	3.05
287.542	3.15
288.011	3.52
288.48	3.49
288.95	3.42
289.419	3.21
289.888	3.08
290.357	3.72
290.827	3.07
291.296	3.36
291.765	3.19
292.234	3.56
292.703	3.58
293.172	3.92
293.641	3.49
294.11	3.21
294.579	3.16
295.048	3
295.517	3.5
295.986	3.24
296.455	3.79
296.923	3.57
297.392	3.27
297.861	3.96
298.33	3.63
298.798	3.32
299.267	3.68
299.736	3.43
300.204	3.73
300.673	3.15
301.141	4.04
301.61	3.64
302.079	4.4
302.547	3.32
303.015	2.88
303.484	3.85
303.952	3.22
304.421	3.06
304.889	3.78
305.357	3.24
305.825	3.85
306.294	2.77
306.762	3.22
307.23	3.75
307.698	3.32
308.166	3.38
308.634	3.98
309.103	2.99
309.571	2.74
310.039	3.19
310.507	3.12
310.975	3.34
311.442	3.31
311.91	3.43
312.378	3.49
312.846	3.31
313.314	2.45
313.782	4.1
314.249	3.66
314.717	3.78
315.185	3.52
315.652	3.59
316.12	3.53
316.588	3.67
317.055	3.61
317.523	3.75
317.99	3.34
318.458	3.3
318.925	3.84
319.393	4.33
319.86	4.16
320.328	3.8
320.795	4.43
321.262	5.04
321.73	5.31
322.197	4.74
322.664	5.11
323.131	5.31
323.598	6.34
324.066	5.32
324.533	5.84
325	6.2
325.467	6.57
325.934	6.39
326.401	7.87
326.868	8.43
327.335	8.2
327.802	9.69
328.269	9.75
328.735	10.13
329.202	10.39
329.669	10.78
330.136	11.82
330.603	11.54
331.069	11.97
331.536	12.48
332.003	13.1
332.469	13.51
332.936	14.28
333.402	13.89
333.869	13.49
334.336	13.26
334.802	13.68
335.268	14.66
335.735	14.15
336.201	14.31
336.668	14.7
337.134	14.13
337.6	13.94
338.067	14.11
338.533	14.89
338.999	13.82
339.465	13.89
339.931	13.35
340.398	14.75
340.864	13.76
341.33	14.36
341.796	14.18
342.262	13.94
342.728	13.68
343.194	15.28
343.66	14.43
344.126	14.85
344.592	14.11
345.057	13.64
345.523	14.93
345.989	13.53
346.455	13.05
346.921	14.67
347.386	14.01
347.852	15.04
348.318	14.35
348.783	13.74
349.249	13.86
349.714	12.73
350.18	14.83
350.645	13.19
351.111	14.26
351.576	13.7
352.042	13.73
352.507	13
352.973	13.24
353.438	13.44
353.903	14.25
354.369	14.2
354.834	14.15
355.299	13.66
355.764	13.62
356.229	13.9
356.695	12.58
357.16	13.52
357.625	12.81
358.09	14.51
358.555	13.67
359.02	12.5
359.485	14.56
359.95	14.24
360.415	14.32
360.879	13.61
361.344	12.66
361.809	13.88
362.274	13.21
362.739	14.06
363.203	13.91
363.668	14.73
364.133	13.58
364.597	13.57
365.062	14.05
365.527	14.3
365.991	14.55
366.456	13.01
366.92	14.02
367.385	14.23
367.849	13.98
368.314	14.94
368.778	15.12
369.242	14.29
369.707	14.29
370.171	14.04
370.635	14.9
371.1	13.76
371.564	13.95
372.028	13.79
372.492	14.34
372.956	14.48
373.42	15.42
373.884	13.03
374.348	13.89
374.812	13.94
375.276	14.5
375.74	14.25
376.204	14.74
376.668	14.03
377.132	14.84
377.596	14.39
378.06	14.36
378.524	13.56
378.987	14.88
379.451	15.09
379.915	14.34
380.378	14
380.842	14.74
381.306	14.08
381.769	15.32
382.233	15.55
382.696	14.13
383.16	14.16
383.623	15.69
384.087	14.2
384.55	13.78
385.014	14.22
385.477	16.19
385.94	15.58
386.404	14.93
386.867	15.98
387.33	14.11
387.793	15.28
388.256	14.31
388.72	14.28
389.183	14.94
389.646	14.67
390.109	15.53
390.572	14.29
391.035	16.02
391.498	15.45
391.961	15.36
392.424	14.75
392.887	14.05
393.35	15.24
393.812	14.24
394.275	14.9
394.738	14.99
395.201	14.11
395.664	14.74
396.126	14.01
396.589	14.76
397.052	14.74
397.514	15.5
397.977	13.94
398.439	15.26
398.902	14.36
399.364	13.54
399.827	13.38
400.289	14.33
400.752	14
401.214	15.13
401.676	15.47
402.139	14.58
402.601	13.63
403.063	14.93
403.525	15.44
403.988	14.94
404.45	14.41
404.912	15.18
405.374	15.23
405.836	13.39
406.298	14.14
406.76	14.15
407.222	13.39
407.684	14.18
408.146	13.7
408.608	13.52
409.07	14.97
409.532	13.83
409.994	14.58
410.456	14.38
410.917	13.89
411.379	13.79
411.841	15.16
412.303	14.86
412.764	13.41
413.226	14.99
413.687	13.21
414.149	15.17
414.611	14.66
415.072	13.8
415.534	14.74
415.995	14.33
416.457	13.37
416.918	14.95
417.379	14.9
417.841	15.09
418.302	14.66
418.763	14.59
419.225	14.75
419.686	14.69
420.147	14.53
420.608	14.63
421.069	15.3
421.53	15.85
421.991	15.43
422.453	15.22
422.914	15.56
423.375	14.55
423.836	15.2
424.297	15.43
424.757	15.18
425.218	15.72
425.679	14.38
426.14	16.29
426.601	14.94
427.062	15.01
427.522	16.38
427.983	17.16
428.444	15.82
428.904	16.79
429.365	15.93
429.826	16.6
430.286	16.76
430.747	16.14
431.207	15.92
431.668	17.11
432.128	17.47
432.589	16.55
433.049	16.76
433.509	15.85
433.97	17.26
434.43	16.04
434.89	15.85
435.351	16.09
435.811	19.91
436.271	16.95
436.731	16.94
437.191	16.79
437.651	16.55
438.112	16.61
438.572	16.69
439.032	16.8
439.492	18.24
439.952	15.45
440.412	16.27
440.871	18.03
441.331	17.39
441.791	18.57
442.251	17.96
442.711	17.81
443.171	18.2
443.63	16.76
444.09	17
444.55	17.36
445.009	17.3
445.469	18.36
445.929	17.65
446.388	18.43
446.848	17.37
447.307	17.9
447.767	17.16
448.226	18.44
448.686	18.51
449.145	18.84
449.604	17.29
450.064	19.1
450.523	18.06
450.982	17.94
451.442	18.79
451.901	17.35
452.36	16.66
452.819	18.73
453.278	15.4
453.737	18.28
454.197	18.67
454.656	19.03
455.115	19.71
455.574	17.6
456.033	20.24
456.492	19.27
456.95	17.88
457.409	17.79
457.868	18.94
458.327	19.16
458.786	17.67
459.245	17.38
459.703	19.61
460.162	18.3
460.621	17.97
461.079	17.5
461.538	17.32
461.997	18.95
462.455	18.77
462.914	18.18
463.372	17.14
463.831	21.1
464.289	17.82
464.748	20.67
465.206	19.23
465.664	17.64
466.123	18.47
466.581	19.12
467.039	18.88
467.497	18.09
467.956	18.49
468.414	18.2
468.872	16.94
469.33	18.55
469.788	17.27
470.246	20.25
470.704	18.62
471.162	18.14
471.62	20.21
472.078	17.9
472.536	19
472.994	19.98
473.452	18.81
473.91	17.54
474.368	17.78
474.826	17.87
475.283	18.73
475.741	19.2
476.199	16.95
476.656	20.06
477.114	18.14
477.572	16.67
478.029	17.54
478.487	17.89
478.944	18.64
479.402	17.28
479.859	19.46
480.317	20.33
480.774	18.41
481.232	20.15
481.689	18.39
482.146	20.5
482.604	16.56
483.061	18.24
483.518	17.8
483.975	19.29
484.433	18.6
484.89	19.5
485.347	18.74
485.804	18.24
486.261	17.93
486.718	16.51
487.175	19.29
487.632	20.48
488.089	19.57
488.546	15.71
489.003	18.54
489.46	17.03
489.917	17.83
490.373	18.11
490.83	15.69
491.287	17.35
491.744	17.67
492.2	20.21
492.657	19.07
493.114	19.22
493.57	21.17
494.027	17.77
494.484	19
494.94	18.43
495.397	18.05
495.853	19.02
496.31	18.91
496.766	17.16
497.222	20.27
497.679	17.8
498.135	17.48
498.591	18.21
499.048	17.6
499.504	18.62
499.96	19.34
500.416	18.28
500.872	17.59
501.329	19.21
501.785	17.01
502.241	19.49
502.697	19.18
503.153	17.32
503.609	19.27
504.065	17.04
504.521	17.26
504.977	18.7
505.432	18.93
505.888	19.21
506.344	17.71
506.8	18.41
507.256	18.91
507.711	20.24
508.167	18.05
508.623	19.71
509.078	17.63
509.534	18.68
509.99	17.63
510.445	18.26
510.901	20.04
511.356	19.08
511.812	19.05
512.267	17.72
512.722	19.46
513.178	19.17
513.633	19.12
514.089	17.65
514.544	19.98
514.999	19.99
515.454	18.14
515.91	17.83
516.365	19.23
516.82	19.22
517.275	18.73
517.73	18.68
518.185	17.59
518.64	18.15
519.095	18.01
519.55	19.42
520.005	19.13
520.46	17.31
520.915	17.37
521.37	19.36
521.825	18.78
522.28	18.35
522.734	19.38
523.189	18.01
523.644	17.92
524.099	19.42
524.553	17.83
525.008	17.12
525.462	19.44
525.917	18.44
526.372	18.37
526.826	18.43
527.281	19.49
527.735	17.61
528.19	17.65
528.644	18.96
529.098	17.54
529.553	18.55
530.007	18.74
530.461	17.71
530.916	19.29
531.37	18.57
531.824	18.13
532.278	19.14
532.732	18.17
533.186	17.8
533.641	18.47
534.095	18.17
534.549	19.17
535.003	18.75
535.457	18.35
535.911	19.2
536.365	17.2
536.818	18.82
537.272	17.69
537.726	19.54
538.18	17.66
538.634	18.39
539.087	17.72
539.541	18.47
539.995	19.32
540.449	18.55
540.902	19.76
541.356	18.12
541.809	19.03
542.263	18.65
542.716	17.44
543.17	17.69
543.623	17.65
544.077	18.9
544.53	18.66
544.984	16.29
545.437	18
545.89	17.9
546.344	17.73
546.797	19.05
547.25	18.28
547.703	18.81
548.157	18.44
548.61	18.37
549.063	18.12
549.516	18.1
549.969	18.87
550.422	18.48
550.875	18.94
551.328	19.41
551.781	17.79
552.234	17.9
552.687	17.97
553.14	18.49
553.592	18.04
554.045	18.83
554.498	18.64
554.951	18.98
555.404	18.89
555.856	17.36
556.309	18.8
556.762	17.52
557.214	18.9
557.667	17.77
558.119	19.28
558.572	18.61
559.024	17.96
559.477	18.56
559.929	17.43
560.382	18.07
560.834	18.18
561.286	17.64
561.739	19.89
562.191	16.45
562.643	17.93
563.095	18.83
563.548	18.32
564	19.05
564.452	18.47
564.904	17.67
565.356	17.69
565.808	19.25
566.26	18.52
566.712	19.06
567.164	18.02
567.616	19.73
568.068	18.69
568.52	18.16
568.972	18.19
569.424	18.17
569.876	17.64
570.327	18.88
570.779	18.82
571.231	18.49
571.682	18.74
572.134	18.28
572.586	18.27
573.037	19.63
573.489	18.2
573.941	18.12
574.392	18.18
574.844	17.92
575.295	17.89
575.746	18.08
576.198	18.58
576.649	18.76
577.101	18.08
577.552	18.91
578.003	19.41
578.454	18.67
578.906	18.65
579.357	18.49
579.808	18.75
580.259	18.86
580.71	18.74
581.161	18.42
581.612	18.44
582.064	17.96
582.515	17.9
582.965	19.17
583.416	18.76
583.867	18.06
584.318	18.25
584.769	18.63
585.22	18.61
585.671	18.77
586.122	20.24
586.572	18.42
587.023	18.67
587.474	18.8
587.924	17.8
588.375	19.51
588.826	18.45
589.276	17.98
589.727	18.34
590.177	18.59
590.628	18.38
591.078	18.59
591.529	19.31
591.979	18.62
592.429	18.32
592.88	19.53
593.33	18.22
593.78	17.91
594.231	19.46
594.681	18.6
595.131	18.13
595.581	18.34
596.031	18.74
596.481	19.33
596.932	19.09
597.382	18.71
597.832	18.28
598.282	17.78
598.732	18.31
599.182	17.76
599.632	18.5
600.081	18.09
600.531	18.88
600.981	17.36
601.431	18.91
601.881	17.91
602.33	18.55
602.78	18.71
603.23	19.03
603.679	18.28
604.129	18.2
604.579	19.07
605.028	18.77
605.478	18.22
605.927	19.18
606.377	18.34
606.826	17.73
607.276	18.19
607.725	18.37
608.175	18.58
608.624	18.2
609.073	18.4
609.522	18.79
609.972	18.65
610.421	18.04
610.87	18.06
611.319	17.93
611.768	18.82
612.218	18.1
612.667	18.58
613.116	18.76
613.565	18.66
614.014	18.14
614.463	18.92
614.912	18.51
615.361	19.04
615.81	17.91
616.258	18.48
616.707	19.14
617.156	18.59
617.605	18.7
618.054	18.56
618.502	18.14
618.951	18.93
619.4	18.12
619.848	18.29
620.297	18.32
620.745	18.91
621.194	18.03
621.642	18.96
622.091	18.64
622.539	18.73
622.988	18.47
623.436	17.57
623.885	18.05
624.333	18.46
624.781	17.9
625.23	18.74
625.678	18.44
626.126	18.24
626.574	18.38
627.022	17.71
627.471	18.08
627.919	17.72
628.367	19.24
628.815	18.54
629.263	18.52
629.711	18.04
630.159	17.52
630.607	18.01
631.055	18.11
631.503	18.09
631.95	17.93
632.398	19.13
632.846	17.67
633.294	18.05
633.742	17.91
634.189	18.29
634.637	18.08
635.085	17.92
635.532	17.64
635.98	18.25
636.427	18.66
636.875	18.61
637.323	18.05
637.77	18.03
638.217	18.3
638.665	17.42
639.112	18.48
639.56	17.59
640.007	18.32
640.454	18.85
640.902	19.14
641.349	18.46
641.796	18.53
642.243	18.25
642.69	17.89
643.138	17.97
643.585	18.61
644.032	17.89
644.479	17.64
644.926	18.33
645.373	18.48
645.82	18.59
646.267	18.64
646.714	18.85
647.161	18.62
647.607	18.55
648.054	19.2
648.501	18.35
648.948	17.22
649.395	19.09
649.841	18.4
650.288	17.84
650.735	17.53
651.181	17.93
651.628	17.65
652.075	18.48
652.521	18.41
652.968	18.02
653.414	17.99
653.861	18.59
654.307	17.99
654.753	18.16
655.2	18.2
655.646	17.56
656.092	18.39
656.539	17.97
656.985	18.96
657.431	18.54
657.877	18.49
658.324	18.39
658.77	18.33
659.216	18.35
659.662	17.93
660.108	17.34
660.554	18.22
661	17.8
661.446	17.88
661.892	17.85
662.338	18.9
662.784	18.33
663.23	18.54
663.675	18.28
664.121	18.49
664.567	18.06
665.013	18.41
665.458	18.06
665.904	18.89
666.35	17.79
666.795	17.93
667.241	18.09
667.687	18.5
668.132	17.79
668.578	17.59
669.023	18.37
669.469	18.31
669.914	17.74
670.359	17.76
670.805	18.8
671.25	18.48
671.695	18.22
672.141	17.64
672.586	18.06
673.031	17.66
673.476	17.64
673.922	18.55
674.367	17.51
674.812	18.66
675.257	18.19
675.702	17.66
676.147	18.44
676.592	18.07
677.037	17.77
677.482	17.98
677.927	18.29
678.372	18.49
678.817	18.77
679.261	17.7
679.706	18.1
680.151	17.61
680.596	18.63
681.04	17.56
681.485	18.47
681.93	18.37
682.374	17.18
682.819	17.85
683.264	17.75
683.708	18.35
684.153	18.3
684.597	17.84
685.042	17.92
685.486	17.72
685.93	17.95
686.375	17.96
686.819	18.24
687.263	18.35
687.708	18.36
688.152	18.59
688.596	18.62
689.04	17.89
689.485	18.7
689.929	18.5
690.373	18.26
690.817	18.43
691.261	18.14
691.705	18.16
692.149	18.51
692.593	18.05
693.037	17.95
693.481	18.16
693.925	18.15
694.369	18.62
694.812	18
695.256	18.34
695.7	17.97
696.144	18.04
696.587	17.67
697.031	17.84
697.475	17.27
697.918	18.35
698.362	18.3
698.806	18.08
699.249	17.67
699.693	17.84
700.136	18.38
700.58	18.1
701.023	18.08
701.466	18.42
701.91	18.38
702.353	17.74
702.796	18.65
703.24	18.2
703.683	18.24
704.126	18.78
704.569	18.39
705.013	18.07
705.456	18.28
705.899	18.1
706.342	17.65
706.785	18.56
707.228	18.52
707.671	17.98
708.114	18.13
708.557	18.06
709	18.12
709.443	18.33
709.886	17.58
710.328	17.91
710.771	18.4
711.214	17.7
711.657	18.4
712.099	18.16
712.542	17.95
712.985	18.29
713.427	17.73
713.87	18.01
714.313	18.08
714.755	18.15
715.198	18.01
715.64	17.75
716.083	18.43
716.525	17.6
716.967	17.92
717.41	17.84
717.852	18.16
718.295	18.5
718.737	18.59
719.179	18.59
719.621	18.68
720.063	18.06
720.506	17.92
720.948	17.95
721.39	17.83
721.832	18.09
722.274	18.35
722.716	18.01
723.158	18.48
723.6	17.95
724.042	18.05
724.484	17.64
724.926	18.28
725.368	17.45
725.81	18.08
726.251	18.14
726.693	17.75
727.135	17.7
727.577	18.24
728.018	17.97
728.46	18.07
728.902	18.13
729.343	18.02
729.785	17.79
730.226	18.19
730.668	17.65
731.109	17.92
731.551	18.02
731.992	18.01
732.434	18.02
732.875	18.02
733.316	18.32
733.758	17.86
734.199	18.17
734.64	18.19
735.081	18.23
735.523	17.91
735.964	17.6
736.405	17.59
736.846	18.09
737.287	17.57
737.728	17.09
738.169	18.12
738.61	18.59
739.051	18.61
739.492	17.62
739.933	18.35
740.374	18.68
740.815	17.95
741.256	17.69
741.696	17.92
742.137	17.7
742.578	18.25
743.019	18.28
743.459	17.58
743.9	18.05
744.341	18.53
744.781	17.39
745.222	17.99
745.662	18.29
746.103	18.2
746.543	17.92
746.984	17.98
747.424	17.87
747.865	18.53
748.305	17.58
748.745	17.93
749.186	17.86
749.626	17.97
750.066	18.03
750.506	17.92
750.947	18.63
751.387	18.03
751.827	17.93
752.267	17.65
752.707	17.91
753.147	18.45
753.587	17.83
754.027	18.9
754.467	17.72
754.907	18.18
755.347	18.46
755.787	18.63
756.227	18.19
756.667	18.15
757.107	18.03
757.546	18.51
757.986	17.65
758.426	18.6
758.865	18.55
759.305	18.16
759.745	18.01
760.184	17.62
760.624	18.07
761.063	18.34
761.503	18.49
761.943	17.85
762.382	17.6
762.821	18.05
763.261	18.08
763.7	17.75
764.14	17.83
764.579	18.38
765.018	18.39
765.457	18.42
765.897	18.2
766.336	18.26
766.775	18.1
767.214	18.47
767.653	17.7
768.092	18.93
768.531	18.12
768.97	17.98
769.409	17.99
769.848	18.4
770.287	18.19
770.726	18.76
771.165	17.61
771.604	18.51
772.043	18.15
772.482	18.37
772.92	18
773.359	18.6
773.798	17.96
774.237	18.15
774.675	18.71
775.114	17.99
775.553	18.64
775.991	18.24
776.43	18.59
776.868	17.98
777.307	18.13
777.745	17.93
778.184	18.26
778.622	18.39
779.06	17.97
779.499	18.77
779.937	17.92
780.375	18.03
780.814	18.54
781.252	18.25
781.69	17.56
782.128	17.92
782.566	17.93
783.004	17.92
783.443	18.16
783.881	18.02
784.319	17.81
784.757	18.5
785.195	18.06
785.633	18.13
786.071	17.61
786.508	17.94
786.946	18.32
787.384	18.54
787.822	18.42
788.26	17.9
788.697	18.2
789.135	18.69
789.573	18.59
790.011	17.83
790.448	18.25
790.886	18.65
791.323	18.42
791.761	18.06
792.198	18.08
792.636	17.95
793.073	18.08
793.511	18.37
793.948	18.52
794.386	18.55
794.823	18.57
795.26	18.73
795.698	18.17
796.135	18.1
796.572	18.62
797.009	18.08
797.446	18.06
797.884	17.78
798.321	18.2
798.758	18.55
799.195	18.35
799.632	18.33
800.069	18.36
800.506	18.23
800.943	18.34
801.38	18.51
801.817	18.64
802.254	18.04
802.69	17.61
803.127	17.99
803.564	18.78
804.001	18
804.438	18.63
804.874	18.51
805.311	18.7
805.748	18.07
806.184	18.56
806.621	18.18
807.057	18.58
807.494	18.47
807.93	18.25
808.367	18.18
808.803	18.45
809.24	18.7
809.676	18.3
810.112	18.45
810.549	18.33
810.985	18.64
811.421	18.01
811.857	18.5
812.294	18.13
812.73	18.27
813.166	18.56
813.602	18.47
814.038	18.44
814.474	18.31
814.91	18.23
815.346	18.56
815.782	18.44
816.218	18.46
816.654	18.34
817.09	18.44
817.526	18.33
817.962	18.46
818.398	18.26
818.833	18.68
819.269	18.37
819.705	18.65
820.141	18.04
820.576	18.26
821.012	18.25
821.447	18.48
821.883	18.29
822.319	18.49
822.754	18.6
823.19	18.37
823.625	18.71
824.061	18.59
824.496	18.61
824.931	18.36
825.367	18.54
825.802	18.74
826.237	18.35
826.673	18.41
827.108	18.53
827.543	18.53
827.978	18.75
828.413	18.52
828.849	18.65
829.284	18.74
829.719	18.39
830.154	18.88
830.589	18.16
831.024	18.54
831.459	17.93
831.894	18.18
832.329	18.82
832.763	18.57
833.198	18.8
833.633	18.81
834.068	18.81
834.503	18.49
834.937	18.65
835.372	18.67
835.807	18.87
836.241	18.77
836.676	18.87
837.111	18.9
837.545	18.66
837.98	18.95
838.414	18.81
838.849	18.47
839.283	18.57
839.717	18.28
840.152	18.72
840.586	18.84
841.021	18.87
841.455	18.74
841.889	19.06
842.323	18.77
842.758	18.72
843.192	19.19
843.626	19.03
844.06	18.66
844.494	19.15
844.928	18.93
845.362	18.95
845.796	18.84
846.23	19.05
846.664	19.22
847.098	18.93
847.532	18.65
847.966	18.49
848.4	18.76
848.834	18.93
849.267	18.79
849.701	18.85
850.135	19.05
850.569	19.03
851.002	19.09
851.436	19.48
851.87	18.58
852.303	19.11
852.737	18.87
853.17	18.87
853.604	19.52
854.037	18.87
854.471	18.52
854.904	18.98
855.337	18.76
855.771	18.86
856.204	18.79
856.637	18.85
857.071	18.73
857.504	19.13
857.937	19.25
858.37	18.99
858.804	19.19
859.237	19.15
859.67	19.22
860.103	19.2
860.536	19.46
860.969	19.2
861.402	18.72
861.835	19.43
862.268	18.79
862.701	19.21
863.134	19.01
863.566	19.27
863.999	19.25
864.432	19.34
864.865	18.98
865.298	18.93
865.73	19.11
866.163	19.27
866.596	19.21
867.028	19.69
867.461	19.23
867.893	19.2
868.326	19.18
868.758	18.84
869.191	19.02
869.623	19.21
870.056	18.97
870.488	18.89
870.92	19.01
871.353	19.04
871.785	19.06
872.217	19.17
872.65	19.62
873.082	19.63
873.514	19.36
873.946	19.31
874.378	19.06
874.81	18.9
875.243	19.47
875.675	19.7
876.107	19.49
876.539	19.39
876.971	19.1
877.403	19.63
877.834	18.82
878.266	19.74
878.698	19.53
879.13	19.56
879.562	19.26
879.994	19.54
880.425	19.12
880.857	19.21
881.289	19.21
881.72	19.44
882.152	19.32
882.584	19.54
883.015	19.67
883.447	19.25
883.878	19.77
884.31	19.34
884.741	19.5
885.173	19.6
885.604	19.46
886.035	19.59
886.467	19.73
886.898	19.46
887.329	19.2
887.76	19.61
888.192	19.9
888.623	19.57
889.054	19.47
889.485	20
889.916	19.19
890.347	19.71
890.778	19.64
891.209	19.51
891.64	19.61
892.071	19.53
892.502	19.88
892.933	19.73
893.364	20.22
893.795	19.79
894.226	19.84
894.657	19.61
895.087	19.33
895.518	19.48
895.949	20.14
896.38	19.8
896.81	19.99
897.241	19.69
897.671	19.78
898.102	19.95
898.533	19.66
898.963	19.76
899.394	20.07
899.824	20.15
900.254	19.56
900.685	19.85
901.115	19.85
901.546	19.8
901.976	20.05
902.406	19.86
902.836	19.84
903.267	20.09
903.697	19.87
904.127	19.74
904.557	19.85
904.987	20.26
905.417	20.4
905.847	20.04
906.277	19.83
906.707	20.31
907.137	19.88
907.567	20.05
907.997	20.1
908.427	20.01
908.857	19.99
909.287	20.02
909.717	19.9
910.146	20.44
910.576	20.44
911.006	19.82
911.436	19.89
911.865	20.12
912.295	20.13
912.724	20.2
913.154	20.29
913.584	20.23
914.013	20.34
914.443	20.42
914.872	20.24
915.302	20.38
915.731	20.11
916.16	20.35
916.59	20.45
917.019	20.61
917.448	20.55
917.878	20.29
918.307	20.65
918.736	20.34
919.165	20.48
919.594	20.26
920.023	20.58
920.452	20.3
920.882	20.5
921.311	20.49
921.74	20.63
922.169	20.49
922.597	20.53
923.026	20.14
923.455	20.56
923.884	20.84
924.313	20.94
924.742	20.2
925.171	20.46
925.599	20.84
926.028	20.54
926.457	20.65
926.885	20.67
927.314	20.72
927.743	20.48
928.171	20.94
928.6	20.9
929.028	20.64
929.457	20.76
929.885	20.38
930.314	20.91
930.742	20.61
931.17	20.58
931.599	20.55
932.027	20.64
932.455	20.81
932.884	20.55
933.312	20.91
933.74	20.85
934.168	20.88
934.596	20.75
935.025	20.89
935.453	21
935.881	20.55
936.309	21.08
936.737	21.13
937.165	20.99
937.593	21.21
938.021	20.83
938.449	21.43
938.876	20.93
939.304	21.19
939.732	21.07
940.16	21
940.588	21.18
941.015	21.4
941.443	20.85
941.871	20.77
942.298	21.22
942.726	20.93
943.154	20.35
943.581	20.9
944.009	20.62
944.436	20.82
944.864	21.22
945.291	21.32
945.718	20.81
946.146	20.83
946.573	20.95
947.001	20.85
947.428	20.77
947.855	20.9
948.282	21.08
948.71	20.83
949.137	21.5
949.564	20.98
949.991	20.9
950.418	20.7
950.845	21.19
951.272	21.29
951.699	21.05
952.126	21.35
952.553	21.07
952.98	21.03
953.407	21.25
953.834	21.27
954.261	21.18
954.688	21.19
955.114	21.15
955.541	21.46
955.968	21.54
956.395	21.38
956.821	21.73
957.248	21.41
957.674	21.37
958.101	21.82
958.528	21.48
958.954	21.57
959.381	21.56
959.807	21.81
960.234	21.26
960.66	21.54
961.086	21.36
961.513	21.39
961.939	21.39
962.365	21.42
962.792	21.26
963.218	21.27
963.644	21.7
964.07	21.8
964.496	21.91
964.923	21.67
965.349	21.66
965.775	21.62
966.201	21.87
966.627	21.74
967.053	21.57
967.479	21.54
967.905	21.83
968.331	21.88
968.756	21.76
969.182	21.5
969.608	22.02
970.034	21.35
970.46	21.72
970.885	21.92
971.311	21.94
971.737	21.76
972.162	21.89
972.588	21.74
973.014	21.86
973.439	21.62
973.865	21.96
974.29	22.35
974.716	21.62
975.141	21.93
975.567	21.93
975.992	21.97
976.417	21.99
976.843	21.97
977.268	22.08
977.693	22.1
978.119	22.06
978.544	22.12
978.969	22.22
979.394	22.15
979.819	22.16
980.244	22.29
980.669	22.37
981.095	22.17
981.52	22.28
981.945	22.01
982.369	22.26
982.794	22.28
983.219	22.5
983.644	22.25
984.069	22.26
984.494	22.4
984.919	22.53
985.343	22.39
985.768	22.62
986.193	22.67
986.618	22.66
987.042	22.78
987.467	22.45
987.891	22.41
988.316	22.57
988.741	22.78
989.165	22.67
989.59	22.63
990.014	22.36
990.438	22.43
990.863	22.63
991.287	22.63
991.712	22.65
992.136	22.77
992.56	22.6
992.984	22.68
993.409	22.83
993.833	22.55
994.257	22.83
994.681	22.38
995.105	22.73
995.529	22.78
995.953	22.87
996.377	23
996.801	23.07
997.225	23
997.649	22.94
998.073	22.88
998.497	23.1
998.921	23.14
999.345	22.95
999.769	22.81
1000.192	23.11
1000.616	22.98
1001.04	23.16
1001.464	23.24
1001.887	23.3
1002.311	23.23
1002.734	23.04
1003.158	23.17
1003.582	23.36
1004.005	22.9
1004.429	23.35
1004.852	23.08
1005.275	23.26
1005.699	23.08
1006.122	23.42
1006.546	23.25
1006.969	23.16
1007.392	23.06
1007.815	23.33
1008.239	23.48
1008.662	23.12
1009.085	23.69
1009.508	23.34
1009.931	23.24
1010.354	23.52
1010.778	23.5
1011.201	23.31
1011.624	23.79
1012.047	23.63
1012.469	23.57
1012.892	23.17
1013.315	23.4
1013.738	23.42
1014.161	23.42
1014.584	23.92
1015.007	23.69
1015.429	23.63
1015.852	23.89
1016.275	24.02
1016.697	23.92
1017.12	23.69
1017.543	23.81
1017.965	23.8
1018.388	24.18
1018.81	23.96
1019.233	23.87
1019.655	24.09
1020.078	24.02
1020.5	23.87
1020.922	23.82
1021.345	23.98
1021.767	23.96
1022.189	24.09
1022.612	24.15
1023.034	24.58
1023.456	23.84
1023.878	24.04
1024.301	24.11
1024.723	23.99
1025.145	23.89
1025.567	24.17
1025.989	24.46
1026.411	24.16
1026.833	24.36
1027.255	24.06
1027.677	23.97
1028.099	24.46
1028.52	24.24
1028.942	24.5
1029.364	24.52
1029.786	24.55
1030.208	24.3
1030.629	24.67
1031.051	24.74
1031.473	24.27
1031.894	24.07
1032.316	24.74
1032.738	24.34
1033.159	24.6
1033.581	24.27
1034.002	24.67
1034.424	24.58
1034.845	24.38
1035.267	24.49
1035.688	24.62
1036.109	24.16
1036.531	25.24
1036.952	24.52
1037.373	24.84
1037.794	24.71
1038.216	24.91
1038.637	24.93
1039.058	23.95
1039.479	24.44
1039.9	24.52
1040.321	24.83
1040.742	24.82
1041.163	24.9
1041.584	24.35
1042.005	24.57
1042.426	24.63
1042.847	24.69
1043.268	24.19
1043.689	24.74
1044.11	24.96
1044.53	25.47
1044.951	24.7
1045.372	24.4
1045.793	25.56
1046.213	25.04
1046.634	25.3
1047.055	25.24
1047.475	25.46
1047.896	24.88
1048.316	25.43
1048.737	25.26
1049.157	25.45
1049.578	24.85
1049.998	24.67
1050.419	25.6
1050.839	25.75
1051.259	24.51
1051.68	25.07
1052.1	25.11
1052.52	25.91
1052.94	25.53
1053.361	25.09
1053.781	24.87
1054.201	25.87
1054.621	25.46
1055.041	25.2
1055.461	24.88
1055.881	25.35
1056.301	25.6
1056.721	26.01
1057.141	25.64
1057.561	26.09
1057.981	26.03
1058.401	25.44
1058.82	25.22
1059.24	25.65
1059.66	25.08
1060.08	26.04
1060.499	25.06
1060.919	25.48
1061.339	26.09
1061.758	25.53
1062.178	26.28
1062.598	25.6
1063.017	25.87
1063.437	26.12
1063.856	25.6
1064.276	25.63
1064.695	25.58
1065.114	25.9
1065.534	26.03
1065.953	25.34
1066.372	25.92
1066.792	26.08
1067.211	26.37
1067.63	25.46
1068.049	26.32
1068.469	26.14
1068.888	25.55
1069.307	26.22
1069.726	25.72
1070.145	26.54
1070.564	25.81
1070.983	26.63
1071.402	25.97
1071.821	26.13
1072.24	26.78
1072.659	25.56
1073.078	26.37
1073.496	26.68
1073.915	27.13
1074.334	25.76
1074.753	26.73
1075.171	26.38
1075.59	27.64
1076.009	26.19
1076.427	26.38
1076.846	26.22
1077.265	25.34
1077.683	25.73
1078.102	26.38
1078.52	26.59
1078.939	26.83
1079.357	27.09
1079.776	26.46
1080.194	27.39
1080.612	25.68
1081.031	26.5
1081.449	26.37
1081.867	26.09
1082.285	27.14
1082.704	26.47
1083.122	26.73
1083.54	27.06
1083.958	26.42
1084.376	26.42
1084.794	26.37
1085.212	26.03
1085.63	27.16
1086.048	26.97
1086.466	26.35
1086.884	26.5
1087.302	27.41
1087.72	26.65
1088.138	27.01
1088.555	26.99
1088.973	27.42
1089.391	28.03
1089.809	26.77
1090.226	27.68
1090.644	27.21
1091.062	28.18
1091.479	25.95
1091.897	27.79
1092.314	26.23
1092.732	26.42
1093.15	27.25
1093.567	27.74
1093.984	27.14
1094.402	27.5
1094.819	28.51
1095.237	28.27
1095.654	27.97
1096.071	26.9
1096.488	26.88
1096.906	27.24
1097.323	27.97
1097.74	26.73
1098.157	27.01
1098.574	26.27
1098.991	27.41
1099.409	27.4
1099.826	27.09
1100.243	28.01
1100.66	29.04
1101.077	27.49
1101.494	27.73
1101.91	27.24
1102.327	26.89
1102.744	26.46
1103.161	27.41
1103.578	26.34
1103.994	27.91
1104.411	28.91
1104.828	28.66
1105.245	31.02
1105.661	27.56
1106.078	27.71
1106.494	28.58
1106.911	29.09
1107.328	28.66
1107.744	29.77
1108.161	28.34
1108.577	26.12
1108.993	28.98
1109.41	29.89
1109.826	28.51
1110.242	28.11
1110.659	26.96
1111.075	29.76
1111.491	30.26
1111.908	29.04
1112.324	27.01
1112.74	38.67
1113.156	28.04
1113.572	27.29
1113.988	31.29
1114.404	30.01
1114.82	26.24
1115.236	26.19
1115.652	27.9
1116.068	26.56
1116.484	26.99
1116.9	26.03
1117.316	25.4
1117.732	8.33
1118.147	-4.17
1118.563	66.67
1118.979	266.67
