Data from JCR0013_SpectralonRef_Reflection_00001.txt Node
Date: Thu Jul 23 14:35:41 ACST 2020
User: Stacey Dix
Spectrometer: MAYP113282
Scans to average: 1
Trigger mode: 0
Integration Time (sec): 1.000000E-1
Electric dark correction enabled: true
Boxcar width: 0
XAxis mode: Wavelengths
Number of Pixels in Spectrum: 2068
>>>>>Begin Spectral Data<<<<<
198.791	433.33
199.266	366.67
199.74	90.48
200.215	-4.76
200.69	101.61
201.164	168.44
201.639	149.77
202.114	98.11
202.588	123.87
203.063	79.95
203.537	201.08
204.012	112.73
204.486	76.5
204.961	184.29
205.435	71.82
205.909	132.98
206.384	95.46
206.858	119.93
207.332	94.2
207.807	113.2
208.281	106.81
208.755	112.01
209.229	93.38
209.703	99.4
210.177	118.23
210.651	80.54
211.126	73.33
211.6	89.29
212.074	62.3
212.548	96.33
213.021	98.11
213.495	102.71
213.969	84.31
214.443	87.08
214.917	122.22
215.391	96.06
215.864	106.63
216.338	90.89
216.812	118.76
217.286	86.73
217.759	91.55
218.233	100.93
218.706	126.2
219.18	96.28
219.654	92.63
220.127	74.82
220.6	84.02
221.074	95.15
221.547	87.59
222.021	109.24
222.494	123.49
222.967	78.1
223.441	106.2
223.914	97.74
224.387	96.61
224.86	98.55
225.334	110.18
225.807	119.62
226.28	101.35
226.753	99.41
227.226	90.77
227.699	105.91
228.172	105.41
228.645	93.59
229.118	89.38
229.591	92.66
230.064	93.37
230.537	97.74
231.01	96.13
231.482	105.48
231.955	113.6
232.428	103.37
232.901	109.04
233.373	103.52
233.846	99.92
234.319	107.5
234.791	90.82
235.264	103.8
235.736	92.24
236.209	91.31
236.681	100.29
237.154	99.62
237.626	105.09
238.099	91.78
238.571	101.43
239.044	93.67
239.516	97.5
239.988	102.13
240.46	99.71
240.933	98.54
241.405	93.72
241.877	96.77
242.349	97.26
242.821	100.62
243.293	96.09
243.765	95.18
244.237	102.16
244.71	99.83
245.181	99.83
245.653	102.55
246.125	102.83
246.597	107.31
247.069	98.89
247.541	101.06
248.013	95.12
248.485	98.2
248.956	100.34
249.428	93.69
249.9	99.53
250.371	98.42
250.843	104.06
251.315	106.21
251.786	95.05
252.258	101.2
252.729	98.72
253.201	106.59
253.672	99.28
254.144	98.47
254.615	99.32
255.086	95.03
255.558	101.34
256.029	97.3
256.5	101.91
256.972	100.18
257.443	101.03
257.914	100.26
258.385	95.6
258.856	92.04
259.327	107.88
259.799	100.61
260.27	99.07
260.741	99.02
261.212	93.84
261.683	97.33
262.154	103.12
262.624	96.07
263.095	95.71
263.566	95.73
264.037	102.92
264.508	99.28
264.979	99.42
265.449	101.47
265.92	97.28
266.391	100.55
266.861	98.78
267.332	99.54
267.803	100.73
268.273	99.67
268.744	100.61
269.214	102.51
269.685	99.09
270.155	93.38
270.626	101.35
271.096	99.25
271.566	96.67
272.037	97.24
272.507	97.13
272.977	99.67
273.448	106.48
273.918	98.59
274.388	106.39
274.858	102.25
275.328	97.41
275.798	103.07
276.268	101.2
276.738	97.65
277.208	102.74
277.678	100.36
278.148	98.84
278.618	97.16
279.088	100.17
279.558	104.8
280.028	102.7
280.498	98.84
280.968	99.51
281.437	103.08
281.907	98.34
282.377	102.66
282.847	96.18
283.316	96.19
283.786	101.04
284.255	100.52
284.725	97.88
285.194	100.36
285.664	100.75
286.133	101.76
286.603	93.98
287.072	99.98
287.542	102.97
288.011	100.35
288.48	104.77
288.95	99.98
289.419	96.7
289.888	101.08
290.357	100.2
290.827	98.18
291.296	99.82
291.765	101.3
292.234	103.21
292.703	98.36
293.172	103.55
293.641	100.58
294.11	98.66
294.579	106.35
295.048	101.24
295.517	99.9
295.986	97.59
296.455	102.42
296.923	93
297.392	103.12
297.861	97.29
298.33	104.05
298.798	100.29
299.267	99.19
299.736	100.61
300.204	99.5
300.673	100.45
301.141	99.35
301.61	99.34
302.079	99.36
302.547	95.39
303.015	102.93
303.484	102.51
303.952	102.44
304.421	100.5
304.889	96.28
305.357	103.04
305.825	101.27
306.294	106.45
306.762	100.98
307.23	102.96
307.698	98.5
308.166	101.44
308.634	97.71
309.103	102.67
309.571	106.07
310.039	102.3
310.507	99.61
310.975	98.92
311.442	102.25
311.91	101.69
312.378	104.4
312.846	97.38
313.314	102.61
313.782	99.21
314.249	96.83
314.717	98.74
315.185	102.37
315.652	92.11
316.12	96.25
316.588	102.82
317.055	102.09
317.523	97.18
317.99	99.26
318.458	101.72
318.925	100.49
319.393	101.59
319.86	95
320.328	99.04
320.795	99.48
321.262	101
321.73	98.53
322.197	95.21
322.664	100.27
323.131	100.12
323.598	97.05
324.066	101.66
324.533	98.82
325	100.68
325.467	101.45
325.934	96.26
326.401	102.43
326.868	104.23
327.335	97.82
327.802	98.34
328.269	97.75
328.735	101.64
329.202	97.71
329.669	99.78
330.136	101.45
330.603	99.02
331.069	103.07
331.536	102.31
332.003	96.9
332.469	98.71
332.936	100.76
333.402	96.4
333.869	98.27
334.336	103.94
334.802	98.11
335.268	100.5
335.735	100.71
336.201	100.93
336.668	99.63
337.134	99.98
337.6	98.65
338.067	100.34
338.533	101.24
338.999	101.57
339.465	98.84
339.931	98.29
340.398	103.31
340.864	101.54
341.33	100.17
341.796	96.13
342.262	101.88
342.728	98.54
343.194	104.75
343.66	101.57
344.126	98.58
344.592	100.49
345.057	98.98
345.523	101.53
345.989	100.23
346.455	105
346.921	97.79
347.386	101.84
347.852	100.24
348.318	99.52
348.783	97.13
349.249	101.73
349.714	101.77
350.18	97.64
350.645	102.26
351.111	96.13
351.576	102.18
352.042	101.64
352.507	97.56
352.973	100.44
353.438	100.37
353.903	99.98
354.369	100.64
354.834	94.55
355.299	96.72
355.764	99.72
356.229	99.85
356.695	100.17
357.16	99.19
357.625	101.87
358.09	97.03
358.555	101.26
359.02	103.73
359.485	97.39
359.95	97.16
360.415	103.8
360.879	101.6
361.344	99.21
361.809	96.08
362.274	99.84
362.739	98.65
363.203	102.25
363.668	96.69
364.133	99.21
364.597	102.21
365.062	101.4
365.527	102.17
365.991	95.62
366.456	99.08
366.92	101.31
367.385	99.56
367.849	99.3
368.314	97.46
368.778	96.84
369.242	97.59
369.707	101.86
370.171	99.44
370.635	100.81
371.1	100.6
371.564	101.4
372.028	102.15
372.492	101.94
372.956	96.71
373.42	97.86
373.884	100.52
374.348	100.84
374.812	98.62
375.276	99.6
375.74	102.68
376.204	96.86
376.668	100.92
377.132	97.87
377.596	100.61
378.06	98.12
378.524	96.18
378.987	100.58
379.451	102.25
379.915	96.05
380.378	99.86
380.842	98.81
381.306	98.08
381.769	99.24
382.233	101.36
382.696	101.32
383.16	101.16
383.623	97.55
384.087	99.55
384.55	100.73
385.014	99.92
385.477	94.82
385.94	101.79
386.404	99.67
386.867	100.61
387.33	98.97
387.793	101.66
388.256	99.56
388.72	98.87
389.183	101.21
389.646	100.67
390.109	98.64
390.572	97.54
391.035	98.24
391.498	102.82
391.961	96.87
392.424	97.52
392.887	98.45
393.35	97.99
393.812	100.64
394.275	100.55
394.738	100.63
395.201	99.33
395.664	98.45
396.126	100.35
396.589	100.09
397.052	97.28
397.514	100.93
397.977	93.84
398.439	101.6
398.902	100.92
399.364	102.61
399.827	101.86
400.289	99.54
400.752	96.7
401.214	95.99
401.676	101.62
402.139	97.03
402.601	103.14
403.063	97.17
403.525	99.92
403.988	101.06
404.45	98.89
404.912	97.94
405.374	101.61
405.836	99.1
406.298	104.63
406.76	98.88
407.222	100.16
407.684	99.09
408.146	100.95
408.608	101.11
409.07	102.27
409.532	101.44
409.994	94.62
410.456	99.32
410.917	97.6
411.379	100.71
411.841	101.25
412.303	101.14
412.764	102.24
413.226	103.31
413.687	97.21
414.149	102.77
414.611	97.77
415.072	99.34
415.534	96.18
415.995	100.2
416.457	102.5
416.918	96.32
417.379	97.87
417.841	99.98
418.302	102.27
418.763	101.23
419.225	98.96
419.686	98.84
420.147	94.21
420.608	97.65
421.069	100.03
421.53	101.15
421.991	97.65
422.453	96.74
422.914	98.54
423.375	100.56
423.836	105.58
424.297	97.91
424.757	100.94
425.218	96.69
425.679	101.72
426.14	95.63
426.601	101.15
427.062	98.24
427.522	101.31
427.983	99.72
428.444	98.66
428.904	104.17
429.365	101.63
429.826	100.36
430.286	95.07
430.747	99.01
431.207	96.36
431.668	103.47
432.128	96.77
432.589	101.4
433.049	98.66
433.509	102.18
433.97	104.43
434.43	95.77
434.89	102.47
435.351	96.67
435.811	98.83
436.271	98.17
436.731	102.17
437.191	92.55
437.651	103.58
438.112	99.25
438.572	103.6
439.032	100.06
439.492	103.83
439.952	95.76
440.412	101.96
440.871	95.99
441.331	98.61
441.791	106.61
442.251	105.24
442.711	97.9
443.171	99.97
443.63	98.97
444.09	101.9
444.55	98.91
445.009	99.7
445.469	98.26
445.929	99.97
446.388	101.38
446.848	101.62
447.307	99.29
447.767	97.5
448.226	98.85
448.686	97.72
449.145	102.9
449.604	101.56
450.064	94.74
450.523	95.52
450.982	95.83
451.442	101.33
451.901	100.98
452.36	101.26
452.819	99.38
453.278	102.98
453.737	102.58
454.197	99.36
454.656	101.53
455.115	101.63
455.574	101.94
456.033	98.59
456.492	106.73
456.95	101.52
457.409	98.98
457.868	99.33
458.327	105.55
458.786	101.53
459.245	99.51
459.703	96.76
460.162	102.83
460.621	100.34
461.079	99.22
461.538	104.3
461.997	101.66
462.455	98.93
462.914	101.73
463.372	99.48
463.831	106.64
464.289	109.17
464.748	104.44
465.206	104.87
465.664	100.57
466.123	104.51
466.581	101.41
467.039	98.68
467.497	98.66
467.956	99.77
468.414	100.39
468.872	101.6
469.33	103.1
469.788	98.74
470.246	97.85
470.704	94.97
471.162	96.34
471.62	97.7
472.078	101.48
472.536	103.49
472.994	104.06
473.452	101.41
473.91	99.86
474.368	98.68
474.826	99.2
475.283	102.22
475.741	95.08
476.199	103.27
476.656	94.67
477.114	99.43
477.572	105.93
478.029	101.57
478.487	98.89
478.944	99.11
479.402	99.44
479.859	107.82
480.317	97.7
480.774	102.22
481.232	95.84
481.689	99.32
482.146	98.49
482.604	97.86
483.061	103.54
483.518	104.71
483.975	99.74
484.433	95.66
484.89	98.01
485.347	106.47
485.804	102.93
486.261	101.87
486.718	96.53
487.175	99.41
487.632	99.74
488.089	103.39
488.546	97.51
489.003	99.31
489.46	98.36
489.917	99.74
490.373	95.36
490.83	96.93
491.287	105
491.744	100.52
492.2	99.41
492.657	98.28
493.114	95.8
493.57	100.5
494.027	100.96
494.484	93.64
494.94	98.01
495.397	99.07
495.853	102.61
496.31	101.61
496.766	94.69
497.222	102.12
497.679	96.41
498.135	103.22
498.591	97.69
499.048	97.75
499.504	101.76
499.96	96.07
500.416	100.38
500.872	96.79
501.329	102.83
501.785	101.96
502.241	97.91
502.697	95.12
503.153	104.92
503.609	97.74
504.065	101.81
504.521	100.54
504.977	99.3
505.432	99.4
505.888	102.16
506.344	98.69
506.8	101.54
507.256	102.59
507.711	104.12
508.167	103.33
508.623	100.22
509.078	100.56
509.534	110.02
509.99	104.19
510.445	102.78
510.901	99.06
511.356	100.72
511.812	99.97
512.267	98.97
512.722	102.05
513.178	100.45
513.633	99.12
514.089	98.49
514.544	102.95
514.999	99.9
515.454	102.53
515.91	102.19
516.365	102.09
516.82	95.55
517.275	99.32
517.73	98.19
518.185	100.65
518.64	103.15
519.095	99.45
519.55	101.73
520.005	103.66
520.46	99.47
520.915	101.52
521.37	100.26
521.825	103.72
522.28	102.38
522.734	99.04
523.189	97.7
523.644	101.91
524.099	100.56
524.553	98.44
525.008	101.15
525.462	98.51
525.917	98.66
526.372	96.79
526.826	101.33
527.281	104.32
527.735	100.5
528.19	104.33
528.644	98.61
529.098	95.76
529.553	100.05
530.007	97.5
530.461	100.67
530.916	99.26
531.37	102.71
531.824	105.16
532.278	99.81
532.732	99.26
533.186	99.16
533.641	102.15
534.095	100.78
534.549	100.05
535.003	96.39
535.457	97.52
535.911	99.25
536.365	99.97
536.818	99.23
537.272	99.3
537.726	98.53
538.18	99.3
538.634	103.44
539.087	99.24
539.541	101.33
539.995	97.6
540.449	99.23
540.902	98.8
541.356	102.28
541.809	100.62
542.263	97.07
542.716	98.62
543.17	102.34
543.623	101.62
544.077	98.46
544.53	99.97
544.984	95.71
545.437	100.47
545.89	97.53
546.344	104.55
546.797	98.71
547.25	99.97
547.703	103.05
548.157	98.79
548.61	101.03
549.063	97.48
549.516	100.2
549.969	103.66
550.422	99.83
550.875	99.83
551.328	100.85
551.781	94.1
552.234	94.77
552.687	101.45
553.14	100.76
553.592	101.05
554.045	97.85
554.498	101.73
554.951	99.3
555.404	101.82
555.856	100.86
556.309	100.52
556.762	100.85
557.214	99.4
557.667	97.6
558.119	102.63
558.572	101.16
559.024	101.82
559.477	101.1
559.929	100.35
560.382	99.37
560.834	98.26
561.286	97.86
561.739	100.1
562.191	98.48
562.643	101.52
563.095	102.14
563.548	103.72
564	100.32
564.452	101.69
564.904	98.71
565.356	101.45
565.808	99.93
566.26	99.98
566.712	97.42
567.164	101.8
567.616	97.68
568.068	97.26
568.52	98.12
568.972	97.36
569.424	98.95
569.876	99.72
570.327	98.29
570.779	99.57
571.231	94.11
571.682	98.97
572.134	100.7
572.586	98.46
573.037	104.06
573.489	100.28
573.941	102.72
574.392	98.13
574.844	99.73
575.295	100.58
575.746	103.6
576.198	100.52
576.649	102.01
577.101	101.36
577.552	100.38
578.003	99.94
578.454	97.61
578.906	101.13
579.357	101.26
579.808	97.62
580.259	101.71
580.71	99.4
581.161	98.71
581.612	98.76
582.064	99.21
582.515	102.24
582.965	102.32
583.416	99.1
583.867	103.44
584.318	97.17
584.769	98.47
585.22	97.81
585.671	98.93
586.122	98.23
586.572	101.29
587.023	100.03
587.474	101.97
587.924	99.34
588.375	101.42
588.826	99.93
589.276	96.82
589.727	99.89
590.177	100.18
590.628	99.68
591.078	104.64
591.529	99.46
591.979	104.32
592.429	101.31
592.88	98.61
593.33	100.18
593.78	97.15
594.231	98.91
594.681	101.28
595.131	98.2
595.581	102.48
596.031	101.86
596.481	103.03
596.932	96.74
597.382	102.49
597.832	96.6
598.282	102.9
598.732	98.75
599.182	102.16
599.632	98.43
600.081	97.25
600.531	101.69
600.981	98.03
601.431	102.7
601.881	101.39
602.33	97.97
602.78	97.67
603.23	99.98
603.679	102.59
604.129	97.4
604.579	102.18
605.028	100.36
605.478	100.03
605.927	103.14
606.377	99.13
606.826	96.85
607.276	100.9
607.725	102.52
608.175	98.86
608.624	98.06
609.073	97.73
609.522	99.46
609.972	97.34
610.421	101.67
610.87	101.26
611.319	98.06
611.768	101.55
612.218	99
612.667	98.47
613.116	99.07
613.565	97.4
614.014	98.16
614.463	99.99
614.912	96.47
615.361	96.43
615.81	100.97
616.258	99.83
616.707	99.31
617.156	100.7
617.605	102.38
618.054	99.83
618.502	103.5
618.951	99.99
619.4	101.85
619.848	100.53
620.297	100.96
620.745	99.84
621.194	100.36
621.642	100.96
622.091	102.39
622.539	100.43
622.988	96.96
623.436	99.09
623.885	98.78
624.333	98.89
624.781	98.9
625.23	103.14
625.678	98.25
626.126	99.37
626.574	102.3
627.022	101.48
627.471	100.64
627.919	97.99
628.367	96.47
628.815	98.36
629.263	100.52
629.711	100.66
630.159	100.19
630.607	101.08
631.055	100.58
631.503	102.74
631.95	100.38
632.398	99.06
632.846	99.99
633.294	98.6
633.742	100.44
634.189	98.02
634.637	101.69
635.085	101.35
635.532	100.59
635.98	100.18
636.427	101.92
636.875	100.55
637.323	98.23
637.77	97.88
638.217	100.58
638.665	99.9
639.112	99.19
639.56	100.61
640.007	101.54
640.454	99.74
640.902	98.19
641.349	101.93
641.796	97.67
642.243	97.49
642.69	100.38
643.138	99.38
643.585	99.87
644.032	97.4
644.479	101.02
644.926	98.8
645.373	100.88
645.82	101.51
646.267	99.48
646.714	100.75
647.161	99.46
647.607	99.49
648.054	98.5
648.501	103.15
648.948	99.67
649.395	99.99
649.841	98.02
650.288	102.21
650.735	98.97
651.181	98.38
651.628	102.79
652.075	100.48
652.521	100.7
652.968	99.44
653.414	98.16
653.861	102.82
654.307	99.21
654.753	101
655.2	100.28
655.646	99.59
656.092	96.97
656.539	100.27
656.985	98.54
657.431	99.06
657.877	99.37
658.324	100.3
658.77	97.29
659.216	100.13
659.662	100.33
660.108	99.85
660.554	99.6
661	96.96
661.446	98.12
661.892	100.63
662.338	101.26
662.784	99.64
663.23	98.93
663.675	99.36
664.121	100.43
664.567	100.4
665.013	99.64
665.458	99.69
665.904	100.12
666.35	98.11
666.795	98.68
667.241	100.02
667.687	100.55
668.132	100.36
668.578	99.35
669.023	100.59
669.469	100.41
669.914	101.47
670.359	100.76
670.805	99.05
671.25	99.08
671.695	99.74
672.141	98.99
672.586	103.21
673.031	99.19
673.476	98.94
673.922	98.45
674.367	99.99
674.812	99.28
675.257	100.14
675.702	99.87
676.147	100.21
676.592	99.32
677.037	100.52
677.482	100.11
677.927	100.84
678.372	99.52
678.817	97.73
679.261	100.99
679.706	100.76
680.151	101.54
680.596	102.14
681.04	100.11
681.485	98.44
681.93	101.44
682.374	99.58
682.819	98.4
683.264	99.88
683.708	98.85
684.153	98.87
684.597	99.83
685.042	100.33
685.486	98.62
685.93	102.01
686.375	98.35
686.819	99.88
687.263	98.5
687.708	99.93
688.152	99.22
688.596	100.95
689.04	100.32
689.485	100.81
689.929	99.84
690.373	100.31
690.817	97.98
691.261	97.88
691.705	101.28
692.149	98.31
692.593	101.62
693.037	99.33
693.481	101.39
693.925	100.14
694.369	99.73
694.812	97.96
695.256	100.2
695.7	99.34
696.144	99.97
696.587	98.56
697.031	99.23
697.475	98.59
697.918	101.67
698.362	99.95
698.806	100.35
699.249	100.01
699.693	98.92
700.136	98.23
700.58	100.4
701.023	98.04
701.466	100.05
701.91	100.73
702.353	99.32
702.796	98.54
703.24	99.95
703.683	98.83
704.126	99.76
704.569	100.7
705.013	97.61
705.456	99.08
705.899	100.68
706.342	102.27
706.785	101.1
707.228	101.62
707.671	99.44
708.114	100.11
708.557	99.35
709	100.05
709.443	97.48
709.886	98.27
710.328	101.51
710.771	100.6
711.214	102.94
711.657	100.41
712.099	100.52
712.542	99.59
712.985	98.43
713.427	100.15
713.87	99.42
714.313	99.78
714.755	100.92
715.198	100.93
715.64	98.55
716.083	98.57
716.525	100.05
716.967	99.95
717.41	99.58
717.852	98.94
718.295	99.14
718.737	101.71
719.179	100.5
719.621	101.42
720.063	101.69
720.506	101.08
720.948	101.16
721.39	102.72
721.832	99.27
722.274	99.68
722.716	99.97
723.158	100.9
723.6	99.41
724.042	99.08
724.484	101.26
724.926	101.43
725.368	98.29
725.81	100.63
726.251	98.4
726.693	100.46
727.135	101.24
727.577	98.53
728.018	99.78
728.46	97.69
728.902	99.42
729.343	100.06
729.785	99.65
730.226	99.72
730.668	98.02
731.109	100.35
731.551	99.4
731.992	99.99
732.434	101.88
732.875	98.45
733.316	101.8
733.758	98.23
734.199	98.55
734.64	101.84
735.081	101.81
735.523	99.59
735.964	101.37
736.405	98.73
736.846	100.06
737.287	101.39
737.728	98.77
738.169	100.35
738.61	99.35
739.051	99.68
739.492	100.45
739.933	101.54
740.374	98.55
740.815	97.99
741.256	99.59
741.696	101.45
742.137	101.1
742.578	101.95
743.019	97.29
743.459	99.63
743.9	100.69
744.341	100.23
744.781	100.44
745.222	99.32
745.662	100.33
746.103	101.75
746.543	98.46
746.984	99.31
747.424	100.39
747.865	100.99
748.305	99.57
748.745	98.78
749.186	98.46
749.626	100.43
750.066	99.14
750.506	101.01
750.947	100.77
751.387	101.6
751.827	100.24
752.267	98.48
752.707	98.8
753.147	99.15
753.587	100.03
754.027	100.26
754.467	102.67
754.907	100.09
755.347	98.33
755.787	99.85
756.227	100.19
756.667	99.44
757.107	100.75
757.546	99.3
757.986	99.95
758.426	100.67
758.865	97.77
759.305	101.26
759.745	99.7
760.184	100.9
760.624	99.67
761.063	100.75
761.503	100.15
761.943	99.78
762.382	100.38
762.821	100.01
763.261	97.64
763.7	100.56
764.14	102.71
764.579	100.01
765.018	99.1
765.457	99.42
765.897	100.22
766.336	98.9
766.775	100.42
767.214	97.66
767.653	98.19
768.092	98.47
768.531	98.05
768.97	99.81
769.409	99.88
769.848	100.62
770.287	100.34
770.726	98.59
771.165	99.94
771.604	99.1
772.043	96.89
772.482	100.5
772.92	97.63
773.359	99.41
773.798	98.96
774.237	99.87
774.675	99.79
775.114	99.87
775.553	100.32
775.991	99.91
776.43	102.06
776.868	100.64
777.307	98.37
777.745	100.44
778.184	100.45
778.622	100.34
779.06	100.91
779.499	100.57
779.937	98.72
780.375	101.09
780.814	99.78
781.252	98.93
781.69	101.96
782.128	101.31
782.566	99.05
783.004	98.58
783.443	100.4
783.881	100.16
784.319	100.68
784.757	100.98
785.195	99.06
785.633	100.08
786.071	101.25
786.508	100.01
786.946	99.74
787.384	99.59
787.822	99.71
788.26	99.48
788.697	99.01
789.135	100.31
789.573	99.05
790.011	100.49
790.448	99.25
790.886	99.03
791.323	99.64
791.761	99.96
792.198	99.75
792.636	98.54
793.073	99.97
793.511	98.37
793.948	100.01
794.386	101.15
794.823	100.79
795.26	99.51
795.698	98.21
796.135	100.57
796.572	98.76
797.009	101.38
797.446	100
797.884	99.66
798.321	99.79
798.758	99.38
799.195	98.83
799.632	100.11
800.069	98.71
800.506	99.65
800.943	98.49
801.38	99.87
801.817	100.56
802.254	98.38
802.69	99.64
803.127	99.38
803.564	98.27
804.001	100.22
804.438	100.24
804.874	100.21
805.311	99.71
805.748	100.62
806.184	99.6
806.621	100.47
807.057	99.94
807.494	100.61
807.93	99.78
808.367	100.28
808.803	100.56
809.24	99.42
809.676	97.91
810.112	98.46
810.549	100.06
810.985	100.45
811.421	99.86
811.857	99.31
812.294	99.59
812.73	99.45
813.166	99.7
813.602	100.02
814.038	99.89
814.474	98.69
814.91	98.53
815.346	101.4
815.782	98.69
816.218	99.85
816.654	99.65
817.09	101.53
817.526	101.01
817.962	100.43
818.398	100.39
818.833	101.29
819.269	98.56
819.705	100.59
820.141	98.99
820.576	100.31
821.012	98.51
821.447	101.63
821.883	101.29
822.319	100.93
822.754	100.06
823.19	99.76
823.625	99.9
824.061	99.18
824.496	99.44
824.931	98.08
825.367	99.22
825.802	99.01
826.237	100.49
826.673	100.94
827.108	100.61
827.543	99.45
827.978	100.66
828.413	100.79
828.849	99.13
829.284	100.97
829.719	99.72
830.154	99.47
830.589	101.97
831.024	98.85
831.459	100.01
831.894	100.7
832.329	99.55
832.763	100.03
833.198	99.12
833.633	100.17
834.068	99.59
834.503	101.63
834.937	98.84
835.372	100.37
835.807	99.58
836.241	98.9
836.676	100.31
837.111	100.13
837.545	101.23
837.98	99.6
838.414	98.98
838.849	100.59
839.283	100.58
839.717	100.25
840.152	99.27
840.586	100.02
841.021	99.35
841.455	99.95
841.889	100.07
842.323	98.99
842.758	99
843.192	100.27
843.626	99.96
844.06	101.29
844.494	98.83
844.928	101.5
845.362	99.71
845.796	100.02
846.23	100.01
846.664	99.93
847.098	100.46
847.532	100.79
847.966	101.56
848.4	100.17
848.834	100.89
849.267	99.43
849.701	99.75
850.135	99.51
850.569	99.64
851.002	99.76
851.436	100.41
851.87	100.21
852.303	101.13
852.737	100.52
853.17	99.99
853.604	99.34
854.037	100.29
854.471	100.14
854.904	99.71
855.337	99.93
855.771	101.13
856.204	97.95
856.637	99.78
857.071	99.36
857.504	99.74
857.937	99.96
858.37	101.24
858.804	100.32
859.237	99.71
859.67	100.31
860.103	100.01
860.536	100.77
860.969	100.18
861.402	100.33
861.835	99.94
862.268	98.91
862.701	100.63
863.134	99.26
863.566	99.15
863.999	99.85
864.432	100.23
864.865	99.21
865.298	101.49
865.73	98.78
866.163	98.78
866.596	98.54
867.028	101.41
867.461	99.96
867.893	100.78
868.326	99.95
868.758	98.29
869.191	99.28
869.623	101.08
870.056	99.14
870.488	99.42
870.92	100.84
871.353	100.6
871.785	99.69
872.217	100.33
872.65	99.03
873.082	100.17
873.514	98.98
873.946	99.85
874.378	99.92
874.81	98.12
875.243	100.97
875.675	99.94
876.107	100.55
876.539	100.84
876.971	99.53
877.403	100.04
877.834	99.38
878.266	99.26
878.698	98.28
879.13	100.15
879.562	99.02
879.994	98.58
880.425	99.37
880.857	100.22
881.289	101.23
881.72	100.4
882.152	100.67
882.584	99.18
883.015	99.56
883.447	99.32
883.878	99.67
884.31	99.45
884.741	100.15
885.173	101
885.604	99.92
886.035	99.32
886.467	99.44
886.898	98.98
887.329	99.51
887.76	100.26
888.192	98.87
888.623	99.73
889.054	100.06
889.485	100.98
889.916	98.58
890.347	101.38
890.778	98.73
891.209	99.95
891.64	100.45
892.071	99.08
892.502	98.44
892.933	100.71
893.364	100.04
893.795	99.96
894.226	99.42
894.657	99.34
895.087	100.05
895.518	100.37
895.949	100.75
896.38	100.07
896.81	99.23
897.241	98.69
897.671	101.34
898.102	100.24
898.533	99.26
898.963	99.4
899.394	99.61
899.824	98.94
900.254	98.94
900.685	99.67
901.115	100.71
901.546	99.32
901.976	100.56
902.406	100.1
902.836	100.38
903.267	99.4
903.697	98.73
904.127	100.16
904.557	99.17
904.987	98.81
905.417	99.07
905.847	100.35
906.277	99.86
906.707	100.98
907.137	100.06
907.567	99.3
907.997	100.1
908.427	100.37
908.857	99.43
909.287	98.46
909.717	100.86
910.146	100.38
910.576	99.68
911.006	99.59
911.436	98.84
911.865	100.52
912.295	100.81
912.724	100.4
913.154	98.88
913.584	101.97
914.013	99.91
914.443	100.82
914.872	100.33
915.302	99.46
915.731	100.03
916.16	100.24
916.59	98.91
917.019	99.82
917.448	99.84
917.878	101.46
918.307	99.98
918.736	99.19
919.165	98.61
919.594	98.94
920.023	100.58
920.452	99.81
920.882	98.87
921.311	99.4
921.74	99.64
922.169	99.08
922.597	99.43
923.026	99.48
923.455	99.91
923.884	99.04
924.313	100.5
924.742	100.34
925.171	98.85
925.599	100.86
926.028	100.79
926.457	100.02
926.885	98.84
927.314	100.21
927.743	99.31
928.171	100.63
928.6	99.14
929.028	99.1
929.457	99.91
929.885	99.76
930.314	100.19
930.742	99.9
931.17	99.89
931.599	100.38
932.027	99.8
932.455	100.11
932.884	99.48
933.312	100.02
933.74	99.98
934.168	98.97
934.596	98.93
935.025	101.38
935.453	102.18
935.881	99.54
936.309	98.45
936.737	100.16
937.165	99.69
937.593	100.04
938.021	100.47
938.449	99.98
938.876	101.65
939.304	99.56
939.732	99.51
940.16	100.1
940.588	98.58
941.015	99.6
941.443	99.53
941.871	98.29
942.298	99.46
942.726	98.94
943.154	99.4
943.581	99.26
944.009	100.2
944.436	98.05
944.864	100.59
945.291	100.61
945.718	100.11
946.146	100.86
946.573	99.95
947.001	97.81
947.428	100.97
947.855	101.41
948.282	100.23
948.71	101.1
949.137	99.44
949.564	98.62
949.991	99.29
950.418	99.3
950.845	100.01
951.272	100.38
951.699	99.81
952.126	100.63
952.553	99.62
952.98	99.05
953.407	100.16
953.834	100.39
954.261	99.66
954.688	99.2
955.114	99.3
955.541	100.68
955.968	99.88
956.395	99.75
956.821	99.46
957.248	100.02
957.674	101.34
958.101	99.02
958.528	101.02
958.954	99.31
959.381	101.38
959.807	99.71
960.234	99.89
960.66	99.28
961.086	99.41
961.513	100.75
961.939	99.59
962.365	99.5
962.792	99.69
963.218	100.13
963.644	99.54
964.07	99.65
964.496	100.5
964.923	100.13
965.349	99.72
965.775	100.37
966.201	99.17
966.627	99.78
967.053	99.67
967.479	99.6
967.905	99.72
968.331	99.8
968.756	99.67
969.182	99.81
969.608	98.9
970.034	98.9
970.46	99.3
970.885	100.72
971.311	100.65
971.737	100.21
972.162	100.35
972.588	100.63
973.014	100.44
973.439	99.5
973.865	100.68
974.29	98.71
974.716	100.66
975.141	99.51
975.567	99.46
975.992	100.3
976.417	100.57
976.843	99.7
977.268	100.73
977.693	99.48
978.119	100.18
978.544	99.25
978.969	99.43
979.394	100.51
979.819	99.94
980.244	99.59
980.669	99.8
981.095	98.7
981.52	99.83
981.945	97.8
982.369	99.48
982.794	99.33
983.219	99.46
983.644	100.12
984.069	99.32
984.494	99.6
984.919	99.35
985.343	100.88
985.768	100.45
986.193	101.37
986.618	99.04
987.042	100.11
987.467	100.33
987.891	99.91
988.316	99.72
988.741	99.95
989.165	100.35
989.59	99.26
990.014	100.87
990.438	100.09
990.863	100.28
991.287	99.8
991.712	99.82
992.136	100.03
992.56	99.48
992.984	98.91
993.409	99.87
993.833	99.95
994.257	99.25
994.681	99.8
995.105	100.03
995.529	98.99
995.953	100.51
996.377	100.04
996.801	98.74
997.225	99.42
997.649	99.94
998.073	100.71
998.497	99.54
998.921	99.78
999.345	99.42
999.769	100.43
1000.192	99.88
1000.616	99.37
1001.04	99.48
1001.464	99.42
1001.887	100.24
1002.311	99.48
1002.734	100.35
1003.158	99.82
1003.582	100.36
1004.005	100.26
1004.429	99.61
1004.852	100.58
1005.275	99.34
1005.699	100.53
1006.122	99.93
1006.546	99.78
1006.969	100.38
1007.392	99.93
1007.815	100.2
1008.239	99.31
1008.662	99.8
1009.085	100
1009.508	99.5
1009.931	100.03
1010.354	99
1010.778	99.23
1011.201	100
1011.624	99.44
1012.047	99.59
1012.469	99.38
1012.892	99.51
1013.315	99.26
1013.738	98.76
1014.161	100.46
1014.584	100.13
1015.007	99.56
1015.429	100.56
1015.852	99.85
1016.275	100.24
1016.697	98.81
1017.12	100.7
1017.543	99.41
1017.965	100.29
1018.388	99.83
1018.81	99.35
1019.233	99.64
1019.655	100.89
1020.078	99.46
1020.5	100.27
1020.922	99.63
1021.345	100.82
1021.767	100.68
1022.189	98.96
1022.612	99.22
1023.034	99.81
1023.456	99.2
1023.878	100.18
1024.301	99.75
1024.723	100.17
1025.145	100.43
1025.567	99.19
1025.989	99.47
1026.411	99.49
1026.833	99.64
1027.255	100
1027.677	99.83
1028.099	99.83
1028.52	100.58
1028.942	100.18
1029.364	99.48
1029.786	99.76
1030.208	99.95
1030.629	99.37
1031.051	98.76
1031.473	99.8
1031.894	99.76
1032.316	100.24
1032.738	99.59
1033.159	100.1
1033.581	100.11
1034.002	98.01
1034.424	98.17
1034.845	99.36
1035.267	100.46
1035.688	98.99
1036.109	99.34
1036.531	98.83
1036.952	99.83
1037.373	99.84
1037.794	99.22
1038.216	99.86
1038.637	98.69
1039.058	100
1039.479	100.37
1039.9	99.84
1040.321	100.31
1040.742	99.75
1041.163	100.89
1041.584	99.44
1042.005	99.66
1042.426	99.19
1042.847	99.87
1043.268	99.41
1043.689	99.98
1044.11	99.8
1044.53	99.28
1044.951	99.29
1045.372	99.79
1045.793	102.09
1046.213	98.89
1046.634	100.33
1047.055	99.43
1047.475	99.39
1047.896	100.68
1048.316	99.35
1048.737	99.66
1049.157	99.75
1049.578	97.83
1049.998	100.31
1050.419	98.64
1050.839	101.01
1051.259	100.22
1051.68	99.67
1052.1	100.37
1052.52	101.66
1052.94	100.76
1053.361	99.8
1053.781	99.57
1054.201	99.79
1054.621	100.16
1055.041	101.13
1055.461	99.88
1055.881	100.22
1056.301	98.84
1056.721	98.76
1057.141	100.06
1057.561	99.71
1057.981	99.79
1058.401	100.24
1058.82	96.85
1059.24	99.17
1059.66	99.76
1060.08	100.71
1060.499	99.94
1060.919	99.25
1061.339	97.86
1061.758	98.24
1062.178	98.85
1062.598	101.05
1063.017	101.63
1063.437	99.16
1063.856	99.72
1064.276	99.04
1064.695	97.8
1065.114	100.4
1065.534	98.72
1065.953	101.13
1066.372	102.75
1066.792	102.96
1067.211	101.05
1067.63	97.57
1068.049	98.36
1068.469	101.32
1068.888	100.9
1069.307	98.85
1069.726	99.63
1070.145	100.48
1070.564	99.24
1070.983	101.04
1071.402	101.81
1071.821	99.45
1072.24	100.24
1072.659	98.16
1073.078	100.82
1073.496	98.45
1073.915	98.67
1074.334	98.05
1074.753	97.33
1075.171	98.46
1075.59	100.56
1076.009	101.41
1076.427	96.79
1076.846	99.59
1077.265	100.14
1077.683	95.9
1078.102	102.74
1078.52	97.7
1078.939	100.27
1079.357	100.97
1079.776	101.56
1080.194	101.18
1080.612	101.24
1081.031	100.19
1081.449	96.58
1081.867	98.69
1082.285	99.79
1082.704	101.25
1083.122	99.65
1083.54	100.34
1083.958	100.34
1084.376	100.32
1084.794	98.57
1085.212	96.88
1085.63	100.44
1086.048	101.79
1086.466	102.17
1086.884	99.91
1087.302	100.66
1087.72	98.86
1088.138	101.01
1088.555	99.08
1088.973	100.03
1089.391	97.3
1089.809	99.43
1090.226	98.98
1090.644	100.16
1091.062	100.03
1091.479	99.76
1091.897	99.74
1092.314	100.83
1092.732	99.79
1093.15	99.04
1093.567	101.82
1093.984	98.76
1094.402	102.22
1094.819	100.52
1095.237	99.93
1095.654	99.29
1096.071	99.16
1096.488	102.56
1096.906	96.48
1097.323	100.67
1097.74	102.17
1098.157	98.1
1098.574	101.67
1098.991	102.89
1099.409	98.65
1099.826	102.5
1100.243	98.07
1100.66	98.54
1101.077	100.11
1101.494	102.33
1101.91	100.46
1102.327	99.18
1102.744	100.56
1103.161	101.78
1103.578	98.09
1103.994	102.5
1104.411	98.27
1104.828	100.64
1105.245	96.43
1105.661	98.62
1106.078	100.85
1106.494	97.33
1106.911	101.36
1107.328	102.29
1107.744	101.07
1108.161	101.42
1108.577	103.06
1108.993	98.52
1109.41	100.18
1109.826	99.5
1110.242	94.58
1110.659	103.91
1111.075	98.45
1111.491	97.55
1111.908	95.65
1112.324	102.87
1112.74	109.72
1113.156	99.79
1113.572	99.95
1113.988	105.52
1114.404	100.12
1114.82	104.64
1115.236	96.94
1115.652	103.22
1116.068	97.74
1116.484	103.94
1116.9	97
1117.316	111.58
1117.732	138.1
1118.147	-40.74
1118.563	-39.39
1118.979	25.93
