Data from JCR0017_SpectralonRef_Reflection_00001.txt Node
Date: Thu Jul 23 16:09:31 ACST 2020
User: Stacey Dix
Spectrometer: MAYP113282
Scans to average: 1
Trigger mode: 0
Integration Time (sec): 1.000000E-1
Electric dark correction enabled: true
Boxcar width: 0
XAxis mode: Wavelengths
Number of Pixels in Spectrum: 2068
>>>>>Begin Spectral Data<<<<<
198.791	158.33
199.266	316.67
199.74	258.33
200.215	0
200.69	119.41
201.164	87.56
201.639	102.38
202.114	95.68
202.588	127.06
203.063	135.08
203.537	101.97
204.012	108.69
204.486	116.33
204.961	113.59
205.435	106.89
205.909	90.46
206.384	100.13
206.858	118.85
207.332	105.64
207.807	101.82
208.281	118.78
208.755	77.9
209.229	121.2
209.703	95.53
210.177	84.57
210.651	101.52
211.126	105.31
211.6	103.4
212.074	98.76
212.548	103.13
213.021	107.3
213.495	123.52
213.969	114.49
214.443	89.98
214.917	99.52
215.391	86.55
215.864	111.72
216.338	108.38
216.812	85.49
217.286	109.13
217.759	111.37
218.233	95.54
218.706	112.13
219.18	104.13
219.654	103.48
220.127	99.33
220.6	105.79
221.074	106.26
221.547	97.71
222.021	92.22
222.494	103.29
222.967	92.45
223.441	110.1
223.914	102.4
224.387	102.78
224.86	102.33
225.334	104.42
225.807	109.55
226.28	95.33
226.753	91.67
227.226	97.12
227.699	99.12
228.172	102.66
228.645	97.38
229.118	97.89
229.591	91.11
230.064	102.83
230.537	102.27
231.01	102.22
231.482	96.68
231.955	99.17
232.428	100.54
232.901	100.61
233.373	103.13
233.846	96.73
234.319	99
234.791	102.63
235.264	96.66
235.736	99.75
236.209	97.24
236.681	97.5
237.154	101.48
237.626	100.24
238.099	99.57
238.571	101.74
239.044	96.95
239.516	99.42
239.988	100.49
240.46	99.51
240.933	100.1
241.405	100.33
241.877	96.59
242.349	100.69
242.821	99.13
243.293	101.53
243.765	100.15
244.237	97.06
244.71	101.52
245.181	101.94
245.653	102.71
246.125	96.34
246.597	101.65
247.069	104.39
247.541	102.9
248.013	98.09
248.485	102.12
248.956	103.41
249.428	98.45
249.9	98.88
250.371	98.09
250.843	99.1
251.315	101.54
251.786	103.16
252.258	101.65
252.729	101.38
253.201	97.55
253.672	99.02
254.144	97.38
254.615	102.77
255.086	100.46
255.558	99.3
256.029	99.26
256.5	99
256.972	99.26
257.443	99.65
257.914	101.5
258.385	100.31
258.856	101.52
259.327	97.62
259.799	100.46
260.27	103.39
260.741	101.51
261.212	100.9
261.683	99.6
262.154	98.49
262.624	99.24
263.095	100.97
263.566	101.33
264.037	101.67
264.508	97.94
264.979	99.72
265.449	100.73
265.92	99.09
266.391	100
266.861	99.84
267.332	100.49
267.803	100.78
268.273	99.53
268.744	101.35
269.214	101.32
269.685	97.12
270.155	99.82
270.626	101.33
271.096	100.56
271.566	99.37
272.037	99.97
272.507	100.25
272.977	101.87
273.448	98.59
273.918	99.31
274.388	100.79
274.858	99.15
275.328	98.9
275.798	101.28
276.268	100.26
276.738	98.86
277.208	97.5
277.678	102.96
278.148	99.36
278.618	102.59
279.088	99.34
279.558	101.19
280.028	100.48
280.498	101.68
280.968	101.14
281.437	100.07
281.907	98.29
282.377	103.86
282.847	98.75
283.316	101.82
283.786	105.05
284.255	101.18
284.725	99.59
285.194	99.98
285.664	100.62
286.133	103.35
286.603	100.46
287.072	101.13
287.542	100.64
288.011	100.49
288.48	99.98
288.95	99.95
289.419	100.72
289.888	102.86
290.357	99.39
290.827	98.99
291.296	99.21
291.765	100.46
292.234	98.68
292.703	98.14
293.172	97.84
293.641	99.22
294.11	100.21
294.579	100.42
295.048	101.65
295.517	101.11
295.986	100.06
296.455	101.49
296.923	98.92
297.392	100.77
297.861	99.09
298.33	100.93
298.798	100.29
299.267	100.01
299.736	98.48
300.204	99.32
300.673	102.3
301.141	100.16
301.61	100.28
302.079	100.25
302.547	100.13
303.015	101.9
303.484	99.73
303.952	101.2
304.421	103.66
304.889	101.02
305.357	97.9
305.825	101.89
306.294	97.5
306.762	101.78
307.23	100.16
307.698	103.5
308.166	99.72
308.634	100.96
309.103	99.11
309.571	101.58
310.039	99.28
310.507	100.12
310.975	100.57
311.442	99.44
311.91	99.74
312.378	99.49
312.846	102.74
313.314	101.4
313.782	100.91
314.249	100.12
314.717	101.81
315.185	101.47
315.652	100.09
316.12	100.42
316.588	101.63
317.055	100.45
317.523	102.09
317.99	99.92
318.458	102.25
318.925	102.75
319.393	97.81
319.86	101.46
320.328	104.09
320.795	99.42
321.262	100.67
321.73	100.73
322.197	98.67
322.664	102.07
323.131	100.28
323.598	102.42
324.066	99.88
324.533	101.34
325	101.31
325.467	102.28
325.934	98.84
326.401	101.02
326.868	100.95
327.335	98.9
327.802	101.4
328.269	101.94
328.735	100.32
329.202	102.18
329.669	100.71
330.136	100.57
330.603	97.65
331.069	97.98
331.536	100.82
332.003	100.47
332.469	99.13
332.936	101.01
333.402	102.12
333.869	99.4
334.336	99.98
334.802	99.61
335.268	101.28
335.735	100.97
336.201	100.86
336.668	102.16
337.134	102.56
337.6	101.62
338.067	100.6
338.533	101.09
338.999	102.05
339.465	101.25
339.931	101.09
340.398	103.04
340.864	99.2
341.33	100.39
341.796	100.24
342.262	101.25
342.728	99.21
343.194	98.81
343.66	100.98
344.126	99.62
344.592	97.7
345.057	100.82
345.523	100.96
345.989	99.95
346.455	100.26
346.921	101.1
347.386	102.45
347.852	101.09
348.318	97.6
348.783	98.35
349.249	100.68
349.714	102.93
350.18	101.41
350.645	102.81
351.111	101.41
351.576	99.11
352.042	101.9
352.507	100.39
352.973	98.77
353.438	98.28
353.903	98.79
354.369	100.86
354.834	101.92
355.299	98.62
355.764	98.14
356.229	102.11
356.695	100.63
357.16	98.96
357.625	100.41
358.09	99.89
358.555	100.94
359.02	100.59
359.485	99.47
359.95	99.43
360.415	99.55
360.879	99.67
361.344	101.06
361.809	100.95
362.274	100.66
362.739	100.47
363.203	103.21
363.668	97.93
364.133	99.47
364.597	100.16
365.062	100.32
365.527	98.94
365.991	102.04
366.456	100.13
366.92	102.76
367.385	100.25
367.849	99.05
368.314	99.33
368.778	102.67
369.242	101.24
369.707	100.13
370.171	98.17
370.635	101.5
371.1	99.47
371.564	97.42
372.028	101.95
372.492	99.79
372.956	99.23
373.42	98.94
373.884	99.43
374.348	101.85
374.812	99.29
375.276	101.8
375.74	101.78
376.204	100.29
376.668	97.35
377.132	102.51
377.596	98.57
378.06	99.62
378.524	103.59
378.987	99.27
379.451	98.76
379.915	101.04
380.378	101.39
380.842	100.62
381.306	100.31
381.769	101.35
382.233	100.29
382.696	101.76
383.16	98.91
383.623	101.75
384.087	98.82
384.55	101.18
385.014	99.4
385.477	100.2
385.94	102.37
386.404	100.57
386.867	100.23
387.33	102.35
387.793	100.9
388.256	101
388.72	101.22
389.183	100.21
389.646	99.15
390.109	99.39
390.572	99.13
391.035	99.29
391.498	99.39
391.961	99.47
392.424	100.91
392.887	99.63
393.35	97.94
393.812	102.41
394.275	101.97
394.738	101.86
395.201	102.48
395.664	101.22
396.126	100.88
396.589	102.48
397.052	99.73
397.514	98.96
397.977	101.82
398.439	99.84
398.902	97.87
399.364	98.26
399.827	98.87
400.289	102.08
400.752	100.92
401.214	96.53
401.676	99.21
402.139	101.63
402.601	101.1
403.063	100.65
403.525	102.28
403.988	99.92
404.45	98.36
404.912	98.25
405.374	103.35
405.836	100.82
406.298	102.29
406.76	98.97
407.222	98.78
407.684	99.58
408.146	101.28
408.608	101.53
409.07	101.21
409.532	98.84
409.994	102.76
410.456	97.06
410.917	99.67
411.379	99.2
411.841	98.91
412.303	98.7
412.764	97.98
413.226	99.73
413.687	99.88
414.149	97.8
414.611	102.97
415.072	100.35
415.534	100.42
415.995	100.89
416.457	100.25
416.918	100.8
417.379	102.29
417.841	100.38
418.302	99.18
418.763	99.18
419.225	101.18
419.686	99.46
420.147	99.27
420.608	99.69
421.069	99.84
421.53	100.12
421.991	102.06
422.453	99.35
422.914	98.45
423.375	100.65
423.836	101.29
424.297	100.47
424.757	98.03
425.218	100.71
425.679	101.5
426.14	100.86
426.601	102.32
427.062	100.27
427.522	101.18
427.983	101.18
428.444	102.65
428.904	97.91
429.365	99.7
429.826	98.46
430.286	100.31
430.747	102.84
431.207	98.13
431.668	98.85
432.128	101.52
432.589	99.75
433.049	98.32
433.509	101.04
433.97	98.91
434.43	100.1
434.89	100.28
435.351	99.07
435.811	101.35
436.271	102.75
436.731	102.3
437.191	98.64
437.651	99.08
438.112	99.84
438.572	101.78
439.032	97.62
439.492	99.8
439.952	98.34
440.412	101.5
440.871	96.7
441.331	101.92
441.791	99.75
442.251	101.42
442.711	100.66
443.171	102.69
443.63	101.47
444.09	101.35
444.55	97.44
445.009	99.35
445.469	97.83
445.929	100.29
446.388	98.92
446.848	96.75
447.307	104.3
447.767	100.09
448.226	99.73
448.686	101.72
449.145	102.81
449.604	100.31
450.064	102.15
450.523	97.02
450.982	99.24
451.442	101.63
451.901	101.94
452.36	95.46
452.819	103.28
453.278	100.59
453.737	102.5
454.197	99.37
454.656	98.97
455.115	97.37
455.574	99.65
456.033	99.48
456.492	99.64
456.95	101.76
457.409	101.09
457.868	102.6
458.327	99.96
458.786	96.72
459.245	97.89
459.703	100.62
460.162	102.11
460.621	99.18
461.079	101.96
461.538	99.88
461.997	100.1
462.455	100.01
462.914	100.86
463.372	100.32
463.831	100.94
464.289	97.61
464.748	100.65
465.206	101.91
465.664	101.59
466.123	99.83
466.581	96.84
467.039	101.17
467.497	99.26
467.956	100.05
468.414	99.02
468.872	96.85
469.33	102.18
469.788	100.1
470.246	101.06
470.704	100.49
471.162	100.6
471.62	98.82
472.078	102.82
472.536	101.84
472.994	99.72
473.452	101.19
473.91	98.88
474.368	101.65
474.826	95.2
475.283	99.27
475.741	101.56
476.199	101.11
476.656	100.26
477.114	98.44
477.572	100.75
478.029	98.61
478.487	98.93
478.944	103.08
479.402	101.06
479.859	97.71
480.317	101.29
480.774	99.03
481.232	97.29
481.689	100.57
482.146	102.94
482.604	102.06
483.061	101.78
483.518	99.76
483.975	103.14
484.433	97.61
484.89	98.91
485.347	100.91
485.804	98.86
486.261	98.6
486.718	100.06
487.175	99.6
487.632	100.11
488.089	101.25
488.546	97.89
489.003	100.57
489.46	101.55
489.917	99.3
490.373	98.88
490.83	98.22
491.287	97.69
491.744	101.58
492.2	98.99
492.657	101.31
493.114	98.67
493.57	101.17
494.027	101.59
494.484	103.55
494.94	102.91
495.397	101.57
495.853	99.26
496.31	97.45
496.766	102.32
497.222	97.89
497.679	99.31
498.135	98.46
498.591	96.6
499.048	100.15
499.504	100.4
499.96	101.44
500.416	101.36
500.872	102.76
501.329	98.37
501.785	99.12
502.241	101.6
502.697	98.32
503.153	102.81
503.609	99.7
504.065	106.47
504.521	101.21
504.977	98.92
505.432	98.2
505.888	100.22
506.344	99.46
506.8	100.84
507.256	99.97
507.711	99.76
508.167	100.67
508.623	99.73
509.078	99.81
509.534	101.48
509.99	100.48
510.445	98.37
510.901	102.83
511.356	99.78
511.812	98.91
512.267	102.15
512.722	100.44
513.178	100.99
513.633	98.86
514.089	101.06
514.544	99.86
514.999	102.47
515.454	99.9
515.91	102.97
516.365	99.87
516.82	101.33
517.275	99.97
517.73	103.48
518.185	100.91
518.64	99.03
519.095	101.17
519.55	96.78
520.005	101.67
520.46	100.45
520.915	99.9
521.37	101.08
521.825	101.89
522.28	103.36
522.734	98.72
523.189	99.1
523.644	99.8
524.099	100.55
524.553	99.32
525.008	101.93
525.462	102.56
525.917	100.88
526.372	100.99
526.826	99.9
527.281	99.65
527.735	101.54
528.19	98.76
528.644	102.57
529.098	100.77
529.553	99.24
530.007	102.05
530.461	100.99
530.916	97.4
531.37	103.12
531.824	103.36
532.278	100.65
532.732	99
533.186	102.35
533.641	99.48
534.095	101.77
534.549	100.98
535.003	101.78
535.457	98.44
535.911	100.87
536.365	99.36
536.818	102.27
537.272	100.36
537.726	100.01
538.18	101.34
538.634	97.42
539.087	99.46
539.541	101.83
539.995	99.2
540.449	98.28
540.902	100.2
541.356	99.77
541.809	104
542.263	98.07
542.716	99.42
543.17	103.92
543.623	97.85
544.077	103.72
544.53	101.02
544.984	101
545.437	101.32
545.89	99.51
546.344	101.27
546.797	96.19
547.25	102.53
547.703	100.35
548.157	102.57
548.61	99.32
549.063	102.58
549.516	101.57
549.969	101.02
550.422	99.79
550.875	100.4
551.328	99.97
551.781	99.29
552.234	99.49
552.687	102.47
553.14	100.62
553.592	99.47
554.045	100.2
554.498	101.07
554.951	100.14
555.404	101.78
555.856	101.12
556.309	99.09
556.762	100.85
557.214	100.83
557.667	102.94
558.119	101.54
558.572	103.13
559.024	99.68
559.477	100.03
559.929	100.82
560.382	100.29
560.834	99.41
561.286	100.52
561.739	100.12
562.191	100.59
562.643	98.72
563.095	101.29
563.548	98.63
564	100.68
564.452	100.99
564.904	100.03
565.356	99.77
565.808	102.49
566.26	100.44
566.712	100.83
567.164	99.32
567.616	100.89
568.068	101.37
568.52	99.43
568.972	101.35
569.424	99.96
569.876	98.91
570.327	99.86
570.779	100.08
571.231	97.2
571.682	100.83
572.134	97.69
572.586	102.48
573.037	98.07
573.489	102.77
573.941	101.5
574.392	100.64
574.844	99.34
575.295	101.02
575.746	100.95
576.198	102.11
576.649	100.1
577.101	100.78
577.552	100.45
578.003	101.46
578.454	100.28
578.906	101.03
579.357	100.42
579.808	101.78
580.259	100.81
580.71	99.38
581.161	101.42
581.612	99.41
582.064	99.87
582.515	99.73
582.965	100.33
583.416	99.93
583.867	99.49
584.318	98.53
584.769	100.61
585.22	103.09
585.671	98.9
586.122	98.16
586.572	103.01
587.023	100.33
587.474	101.68
587.924	101.29
588.375	101.88
588.826	99.36
589.276	102.53
589.727	99.36
590.177	99.17
590.628	99.7
591.078	99.96
591.529	99.49
591.979	99.44
592.429	98.44
592.88	99.63
593.33	101.16
593.78	100.19
594.231	99.86
594.681	99.54
595.131	99.61
595.581	100
596.031	98.77
596.481	99.31
596.932	99.06
597.382	101.19
597.832	100.4
598.282	99.01
598.732	99.8
599.182	101.52
599.632	100.96
600.081	100.1
600.531	97.64
600.981	99.89
601.431	99.06
601.881	101.33
602.33	100.97
602.78	100.18
603.23	99.07
603.679	100.41
604.129	100.81
604.579	101.94
605.028	100.33
605.478	99.5
605.927	99.27
606.377	102.25
606.826	101.53
607.276	99.57
607.725	101.32
608.175	101.55
608.624	98.64
609.073	102.22
609.522	97.2
609.972	97.95
610.421	102.58
610.87	100.07
611.319	98
611.768	100.71
612.218	99.04
612.667	100.24
613.116	99.29
613.565	99.77
614.014	99.67
614.463	101.69
614.912	101.4
615.361	99.18
615.81	101.18
616.258	101.16
616.707	100.61
617.156	101.84
617.605	100.95
618.054	99.71
618.502	100.7
618.951	97.7
619.4	101.63
619.848	101.85
620.297	100.65
620.745	99.58
621.194	101.27
621.642	101.56
622.091	100.23
622.539	99.71
622.988	100.19
623.436	98.92
623.885	101.25
624.333	100.99
624.781	100.26
625.23	99.8
625.678	99.94
626.126	99.8
626.574	100.1
627.022	100.27
627.471	100.22
627.919	101.89
628.367	99.59
628.815	100.94
629.263	99.97
629.711	100.05
630.159	99.63
630.607	98.73
631.055	101.28
631.503	99.01
631.95	101.74
632.398	99.77
632.846	98.9
633.294	98.01
633.742	100.64
634.189	100.97
634.637	101.25
635.085	98.65
635.532	100.76
635.98	99.57
636.427	99.88
636.875	100.12
637.323	101.07
637.77	101.58
638.217	100.82
638.665	101.24
639.112	101.91
639.56	98.66
640.007	100.5
640.454	99.9
640.902	100.41
641.349	102.5
641.796	100.61
642.243	100.1
642.69	99.28
643.138	100.1
643.585	101.43
644.032	100.46
644.479	99.39
644.926	100.46
645.373	100.09
645.82	99.09
646.267	101.03
646.714	99.68
647.161	100.27
647.607	101.61
648.054	100.41
648.501	99.93
648.948	98.92
649.395	100.02
649.841	99.86
650.288	100.16
650.735	100.52
651.181	100.39
651.628	101.38
652.075	99.55
652.521	100.66
652.968	98.91
653.414	99.71
653.861	102.33
654.307	100.43
654.753	99.67
655.2	100.63
655.646	100.56
656.092	100.42
656.539	101.32
656.985	100.33
657.431	99
657.877	99.27
658.324	100.17
658.77	100.73
659.216	103.01
659.662	100.71
660.108	100.1
660.554	100.78
661	100.63
661.446	100.21
661.892	103.05
662.338	99.57
662.784	100.3
663.23	99.69
663.675	101.25
664.121	100.66
664.567	100.66
665.013	99.96
665.458	99.64
665.904	99.91
666.35	98.99
666.795	101.22
667.241	99.5
667.687	98.8
668.132	100.69
668.578	99.81
669.023	99.95
669.469	102.02
669.914	100.1
670.359	98.27
670.805	98.9
671.25	98.75
671.695	100.33
672.141	99.93
672.586	101.17
673.031	102.14
673.476	100.87
673.922	100.36
674.367	98.77
674.812	100.72
675.257	100.04
675.702	99
676.147	99.04
676.592	100.15
677.037	102.56
677.482	100.69
677.927	100.83
678.372	99.45
678.817	100.73
679.261	100.29
679.706	100.16
680.151	101.1
680.596	100.89
681.04	100.36
681.485	101.26
681.93	102.62
682.374	100.5
682.819	99.9
683.264	100.21
683.708	101.48
684.153	100.86
684.597	99.92
685.042	100.68
685.486	100.08
685.93	99.94
686.375	100.65
686.819	99.24
687.263	101.22
687.708	99.07
688.152	99.23
688.596	101.59
689.04	101.35
689.485	100.01
689.929	101.26
690.373	100.23
690.817	100.41
691.261	98.15
691.705	100.24
692.149	100.24
692.593	101.62
693.037	99.57
693.481	100.46
693.925	99.41
694.369	100.44
694.812	99.81
695.256	99.05
695.7	100.69
696.144	100.21
696.587	100.2
697.031	99.43
697.475	98.8
697.918	100.21
698.362	101.05
698.806	100.26
699.249	100.65
699.693	99.68
700.136	101.18
700.58	100.07
701.023	99.46
701.466	100.87
701.91	100.33
702.353	100.59
702.796	100.83
703.24	99.39
703.683	100.24
704.126	99.97
704.569	100.51
705.013	99.59
705.456	100.71
705.899	100
706.342	100.7
706.785	101.06
707.228	101.11
707.671	100.76
708.114	102.53
708.557	101.19
709	99.92
709.443	99.51
709.886	99.58
710.328	99.66
710.771	100.65
711.214	100.4
711.657	98.91
712.099	100.22
712.542	100.21
712.985	99.8
713.427	100.56
713.87	99.96
714.313	99.59
714.755	100.04
715.198	101.31
715.64	100.83
716.083	100.45
716.525	99.77
716.967	100.44
717.41	99.51
717.852	99.65
718.295	100.8
718.737	99.3
719.179	101.93
719.621	101.22
720.063	99.79
720.506	100.08
720.948	101.16
721.39	101.18
721.832	102.09
722.274	100.74
722.716	100.8
723.158	99.34
723.6	100.68
724.042	101.27
724.484	101.42
724.926	100.16
725.368	98.79
725.81	99.07
726.251	100.82
726.693	99.03
727.135	100.97
727.577	101.23
728.018	100.72
728.46	99.1
728.902	100.26
729.343	99.96
729.785	100.1
730.226	100.6
730.668	98.3
731.109	100.21
731.551	100.59
731.992	99.56
732.434	100.87
732.875	100.89
733.316	100.92
733.758	98.64
734.199	100.15
734.64	100.35
735.081	99.91
735.523	100.22
735.964	101
736.405	100.41
736.846	101.18
737.287	99.94
737.728	98.8
738.169	101.02
738.61	100.45
739.051	100.07
739.492	100.39
739.933	102.48
740.374	99.93
740.815	101.69
741.256	98.86
741.696	99.27
742.137	101.11
742.578	100.45
743.019	100.33
743.459	100.17
743.9	101.22
744.341	100.62
744.781	99.69
745.222	100.02
745.662	100.85
746.103	100.82
746.543	99.85
746.984	99.39
747.424	100.72
747.865	100.03
748.305	100.5
748.745	100.44
749.186	100.72
749.626	99.21
750.066	100.39
750.506	101.52
750.947	99.9
751.387	101.39
751.827	100.45
752.267	99.54
752.707	100.24
753.147	100.61
753.587	103.05
754.027	99.37
754.467	101.06
754.907	100.16
755.347	99.36
755.787	99.56
756.227	100.07
756.667	101.72
757.107	100.13
757.546	99.94
757.986	101.54
758.426	100.81
758.865	99.83
759.305	101.74
759.745	99.38
760.184	101.55
760.624	101.13
761.063	101.09
761.503	100.21
761.943	100.02
762.382	99.73
762.821	100.53
763.261	100.95
763.7	99.87
764.14	100.42
764.579	100.06
765.018	101.15
765.457	100.91
765.897	100.48
766.336	100.33
766.775	101.07
767.214	100.04
767.653	100.02
768.092	100.65
768.531	99.48
768.97	100.17
769.409	99.9
769.848	101.35
770.287	99.23
770.726	99.86
771.165	100.97
771.604	101.44
772.043	99.63
772.482	102.1
772.92	101.32
773.359	99.99
773.798	100.44
774.237	100.12
774.675	100.25
775.114	100.65
775.553	99.97
775.991	100.03
776.43	100.2
776.868	101.18
777.307	100.31
777.745	99.79
778.184	99.53
778.622	101.04
779.06	100.8
779.499	100.27
779.937	99.65
780.375	99.34
780.814	101.07
781.252	99.99
781.69	99.91
782.128	100.2
782.566	100.72
783.004	100.39
783.443	99.84
783.881	99.24
784.319	101.2
784.757	100.16
785.195	100.02
785.633	100.48
786.071	100.57
786.508	100.24
786.946	100.46
787.384	101.08
787.822	100.41
788.26	100.28
788.697	100.4
789.135	99.79
789.573	100.7
790.011	100.46
790.448	100.33
790.886	100.56
791.323	99.61
791.761	100.13
792.198	101.15
792.636	99.93
793.073	100.79
793.511	100.26
793.948	100.69
794.386	101.14
794.823	99.34
795.26	99.65
795.698	100.4
796.135	100.31
796.572	100.77
797.009	100.01
797.446	100.87
797.884	101.41
798.321	99.65
798.758	100.67
799.195	100.21
799.632	99.45
800.069	100.49
800.506	100.06
800.943	100.56
801.38	100.15
801.817	101.37
802.254	100.92
802.69	100.49
803.127	100.01
803.564	100.35
804.001	100.45
804.438	100.52
804.874	99.61
805.311	99.95
805.748	100.73
806.184	99.46
806.621	99.01
807.057	100.96
807.494	99.41
807.93	100.73
808.367	100.45
808.803	99.96
809.24	100.29
809.676	99.59
810.112	99.69
810.549	100.34
810.985	100.25
811.421	101.54
811.857	99.26
812.294	102.24
812.73	100.08
813.166	100.32
813.602	100.45
814.038	99.91
814.474	99.92
814.91	101.87
815.346	100.18
815.782	99.41
816.218	99.55
816.654	100.43
817.09	99.94
817.526	100.47
817.962	99.79
818.398	99.69
818.833	100.58
819.269	99.77
819.705	100.36
820.141	99.73
820.576	100.15
821.012	101.01
821.447	100.44
821.883	99.95
822.319	100.95
822.754	100.26
823.19	100.3
823.625	99.47
824.061	100.84
824.496	100.41
824.931	99.7
825.367	100.07
825.802	101.1
826.237	100.52
826.673	99.63
827.108	100.51
827.543	102.13
827.978	100.48
828.413	99.42
828.849	99.72
829.284	100.98
829.719	100.12
830.154	100.49
830.589	100.27
831.024	100.72
831.459	100.05
831.894	100.37
832.329	99.87
832.763	99.65
833.198	100.97
833.633	100.02
834.068	100.14
834.503	101.25
834.937	99.74
835.372	100.39
835.807	99.82
836.241	99.41
836.676	100.77
837.111	99.86
837.545	100.59
837.98	100.03
838.414	100.54
838.849	100.52
839.283	101.31
839.717	100.07
840.152	100.64
840.586	99.77
841.021	100.63
841.455	100.83
841.889	99
842.323	100.34
842.758	100.61
843.192	100.56
843.626	100.55
844.06	100.25
844.494	100.25
844.928	100.07
845.362	99.81
845.796	100.23
846.23	101.17
846.664	99.88
847.098	101.12
847.532	100.48
847.966	100.59
848.4	100.65
848.834	101.25
849.267	99.89
849.701	101.13
850.135	100.05
850.569	100.14
851.002	99.75
851.436	101.32
851.87	100.24
852.303	100.19
852.737	101.08
853.17	100.66
853.604	101.02
854.037	100.61
854.471	100.29
854.904	99.4
855.337	100.32
855.771	100.51
856.204	101.1
856.637	99.78
857.071	100.76
857.504	99.86
857.937	100.11
858.37	100.96
858.804	101.05
859.237	100.89
859.67	99.65
860.103	101.05
860.536	99.91
860.969	99.21
861.402	100.49
861.835	100.71
862.268	99.61
862.701	99.57
863.134	100.13
863.566	100.58
863.999	100.16
864.432	99.95
864.865	100.24
865.298	100.19
865.73	99.73
866.163	100.76
866.596	100.21
867.028	100.42
867.461	100.49
867.893	99.64
868.326	99.85
868.758	100.48
869.191	100.37
869.623	100.08
870.056	100.33
870.488	100.58
870.92	99.35
871.353	100.22
871.785	99.94
872.217	100.37
872.65	99.84
873.082	100.91
873.514	100.84
873.946	100.08
874.378	100.66
874.81	100.07
875.243	100.08
875.675	100.84
876.107	100.11
876.539	99.99
876.971	100.91
877.403	100.93
877.834	100.22
878.266	99.49
878.698	100.43
879.13	100.3
879.562	100.4
879.994	99.79
880.425	99.52
880.857	101.21
881.289	100.53
881.72	100.56
882.152	100.52
882.584	98.97
883.015	100.97
883.447	100.49
883.878	99.95
884.31	100.72
884.741	100.03
885.173	98.97
885.604	100.78
886.035	100.5
886.467	100.11
886.898	100.28
887.329	100.35
887.76	101.12
888.192	100.01
888.623	99.52
889.054	100.76
889.485	100.04
889.916	100.31
890.347	100.43
890.778	100.29
891.209	99.87
891.64	100.8
892.071	100.8
892.502	100.79
892.933	100.03
893.364	99.33
893.795	100.24
894.226	100.59
894.657	100.43
895.087	101.09
895.518	100.9
895.949	100.57
896.38	99.98
896.81	101.14
897.241	100.21
897.671	99.66
898.102	100.08
898.533	100.82
898.963	99.99
899.394	99.95
899.824	100.38
900.254	100.86
900.685	100.69
901.115	100.05
901.546	100.78
901.976	100.77
902.406	99.98
902.836	100.7
903.267	100.53
903.697	99.81
904.127	100.67
904.557	99.98
904.987	100.1
905.417	99.95
905.847	99.97
906.277	100.24
906.707	100.21
907.137	100.19
907.567	100.66
907.997	100.41
908.427	99.9
908.857	100.72
909.287	101.31
909.717	100.01
910.146	100.53
910.576	100.23
911.006	100.65
911.436	99.58
911.865	100.01
912.295	99.4
912.724	100.18
913.154	99.62
913.584	100.38
914.013	100.62
914.443	100.6
914.872	100.82
915.302	100.37
915.731	101.09
916.16	101.02
916.59	99.4
917.019	101.2
917.448	99.81
917.878	100.12
918.307	100.36
918.736	100.6
919.165	100.27
919.594	100.23
920.023	100.57
920.452	99.46
920.882	100.34
921.311	100.59
921.74	100.1
922.169	100.07
922.597	100.39
923.026	99.68
923.455	100.1
923.884	99.58
924.313	100.31
924.742	100.13
925.171	100.39
925.599	101.07
926.028	99.72
926.457	100.4
926.885	100.41
927.314	100.51
927.743	100.24
928.171	100.46
928.6	100.33
929.028	100.24
929.457	100.83
929.885	100.8
930.314	99.54
930.742	100.64
931.17	100.22
931.599	99.85
932.027	100.37
932.455	99.88
932.884	100.33
933.312	99.43
933.74	100.69
934.168	99.88
934.596	100.93
935.025	100.49
935.453	99.78
935.881	100.05
936.309	99.64
936.737	100.52
937.165	98.94
937.593	100.12
938.021	100.7
938.449	99.33
938.876	100.73
939.304	100.33
939.732	100
940.16	99.55
940.588	100.34
941.015	100.11
941.443	98.97
941.871	100.21
942.298	100.41
942.726	100.95
943.154	100.6
943.581	100.92
944.009	99.48
944.436	101.34
944.864	101.33
945.291	100.88
945.718	100.76
946.146	99.31
946.573	99.64
947.001	100.73
947.428	100.81
947.855	99.75
948.282	100.77
948.71	99.57
949.137	100.66
949.564	101.02
949.991	99.89
950.418	100.51
950.845	99.94
951.272	100.57
951.699	100.26
952.126	100.87
952.553	100.33
952.98	101.06
953.407	100.14
953.834	99.11
954.261	101.49
954.688	100.81
955.114	100.42
955.541	100.95
955.968	100.33
956.395	100.69
956.821	99.53
957.248	100.37
957.674	99.96
958.101	100.42
958.528	100.03
958.954	100.73
959.381	100.33
959.807	100.62
960.234	100.81
960.66	100.13
961.086	100.48
961.513	100.41
961.939	100.38
962.365	100.49
962.792	100.86
963.218	100.72
963.644	100.63
964.07	100.6
964.496	100.94
964.923	99.17
965.349	100.4
965.775	100.43
966.201	101.05
966.627	100.77
967.053	100.31
967.479	99.63
967.905	100.12
968.331	100.95
968.756	100.5
969.182	100.5
969.608	100.11
970.034	100.73
970.46	99.96
970.885	100.59
971.311	100.64
971.737	100.06
972.162	101.27
972.588	100.73
973.014	100.88
973.439	99.78
973.865	100.84
974.29	100.35
974.716	99.9
975.141	100.71
975.567	100.74
975.992	100.08
976.417	100.89
976.843	100.52
977.268	99.94
977.693	100.6
978.119	100.22
978.544	100.88
978.969	100.19
979.394	100.25
979.819	99.53
980.244	99.74
980.669	99.89
981.095	101.02
981.52	100.59
981.945	100.59
982.369	100.53
982.794	100.09
983.219	101.11
983.644	100.53
984.069	100.29
984.494	100.63
984.919	100.54
985.343	100.26
985.768	99.77
986.193	100.57
986.618	100.02
987.042	100.25
987.467	100.43
987.891	100.59
988.316	100.84
988.741	100.31
989.165	100.75
989.59	100.39
990.014	100.43
990.438	100.2
990.863	100.4
991.287	100.47
991.712	100.6
992.136	100.66
992.56	100.71
992.984	100.19
993.409	100.85
993.833	100.23
994.257	99.75
994.681	100.24
995.105	99.9
995.529	99.56
995.953	100.25
996.377	99.99
996.801	100.3
997.225	100.25
997.649	100.15
998.073	100.3
998.497	99.76
998.921	100.57
999.345	100.51
999.769	100.51
1000.192	100.84
1000.616	100.29
1001.04	100.95
1001.464	99.78
1001.887	99.93
1002.311	100.15
1002.734	101.35
1003.158	100.77
1003.582	100.38
1004.005	100.15
1004.429	100.66
1004.852	100.35
1005.275	100.54
1005.699	100.38
1006.122	100.66
1006.546	99.86
1006.969	100.23
1007.392	99.69
1007.815	100.45
1008.239	100
1008.662	99.97
1009.085	100.68
1009.508	100.31
1009.931	99.53
1010.354	100.5
1010.778	100.6
1011.201	99.74
1011.624	100.55
1012.047	100.07
1012.469	100.05
1012.892	100.13
1013.315	100.17
1013.738	100.12
1014.161	100.21
1014.584	100.2
1015.007	99.89
1015.429	100.13
1015.852	99.98
1016.275	100.11
1016.697	100.64
1017.12	100.56
1017.543	100.65
1017.965	101.49
1018.388	99.77
1018.81	100.87
1019.233	100.01
1019.655	100.93
1020.078	101.05
1020.5	101.04
1020.922	99.04
1021.345	100.29
1021.767	100.33
1022.189	100.46
1022.612	100.54
1023.034	100.16
1023.456	100.52
1023.878	100.13
1024.301	100.12
1024.723	99.59
1025.145	99.98
1025.567	99.69
1025.989	99.9
1026.411	99.87
1026.833	101.09
1027.255	101.43
1027.677	100.2
1028.099	99.74
1028.52	100
1028.942	99.79
1029.364	99.21
1029.786	99.44
1030.208	99.78
1030.629	100.33
1031.051	100.92
1031.473	99.83
1031.894	100.76
1032.316	99.79
1032.738	99.82
1033.159	100.42
1033.581	100.45
1034.002	100.5
1034.424	101.36
1034.845	100.26
1035.267	100.78
1035.688	100.18
1036.109	100.95
1036.531	100.65
1036.952	100.69
1037.373	100.54
1037.794	100.14
1038.216	99.83
1038.637	100.26
1039.058	101.08
1039.479	100.36
1039.9	100.04
1040.321	100.09
1040.742	100.21
1041.163	100.05
1041.584	99.74
1042.005	100.68
1042.426	100.67
1042.847	99.35
1043.268	101.46
1043.689	99.28
1044.11	101.06
1044.53	100.2
1044.951	101.42
1045.372	99.25
1045.793	100.43
1046.213	98.37
1046.634	99.62
1047.055	100.36
1047.475	100.86
1047.896	100.1
1048.316	100.85
1048.737	100.87
1049.157	100.6
1049.578	100.51
1049.998	100.94
1050.419	99.25
1050.839	99.9
1051.259	100.87
1051.68	101.03
1052.1	100.19
1052.52	100.5
1052.94	100.38
1053.361	99.04
1053.781	100.48
1054.201	99.95
1054.621	101.4
1055.041	100.81
1055.461	100.64
1055.881	100.24
1056.301	101.2
1056.721	100.41
1057.141	101.22
1057.561	100.49
1057.981	100.28
1058.401	100.36
1058.82	101.27
1059.24	100.44
1059.66	100.84
1060.08	99.73
1060.499	99.44
1060.919	98.92
1061.339	99.62
1061.758	100.24
1062.178	99.95
1062.598	99.12
1063.017	101.5
1063.437	100.79
1063.856	99.3
1064.276	99.88
1064.695	98.79
1065.114	99.31
1065.534	100.48
1065.953	101.13
1066.372	99
1066.792	97.77
1067.211	100.45
1067.63	99.65
1068.049	98.64
1068.469	99.35
1068.888	101.43
1069.307	100.96
1069.726	99.81
1070.145	100.59
1070.564	101.51
1070.983	100.29
1071.402	100.45
1071.821	100.43
1072.24	102.09
1072.659	99.88
1073.078	99.13
1073.496	100.37
1073.915	100.7
1074.334	100.2
1074.753	100.28
1075.171	101.01
1075.59	99.82
1076.009	102.19
1076.427	100.19
1076.846	99.88
1077.265	99.58
1077.683	99.46
1078.102	101.44
1078.52	100.08
1078.939	100.48
1079.357	99.56
1079.776	100.28
1080.194	98.71
1080.612	101.63
1081.031	99.84
1081.449	102.85
1081.867	100.89
1082.285	101
1082.704	97.28
1083.122	102.11
1083.54	100.28
1083.958	98.82
1084.376	100.13
1084.794	98.78
1085.212	102.15
1085.63	99.91
1086.048	99.55
1086.466	100.25
1086.884	100.29
1087.302	99.52
1087.72	100.54
1088.138	102.5
1088.555	100.51
1088.973	99.94
1089.391	97.65
1089.809	99.31
1090.226	98.65
1090.644	101.41
1091.062	99.2
1091.479	99.53
1091.897	99.27
1092.314	99.23
1092.732	100.34
1093.15	99.91
1093.567	99.83
1093.984	100.47
1094.402	100.23
1094.819	101.04
1095.237	101.33
1095.654	100.42
1096.071	100
1096.488	101.44
1096.906	100.93
1097.323	100.76
1097.74	100.88
1098.157	99.03
1098.574	100.82
1098.991	100.66
1099.409	98.96
1099.826	100.62
1100.243	100.98
1100.66	98.35
1101.077	99.91
1101.494	102.48
1101.91	103.41
1102.327	101.52
1102.744	98.89
1103.161	101.01
1103.578	100.12
1103.994	98.79
1104.411	104.59
1104.828	102.67
1105.245	101.01
1105.661	97.78
1106.078	101.02
1106.494	102.9
1106.911	98.81
1107.328	98.34
1107.744	101.5
1108.161	98.71
1108.577	97.01
1108.993	99.43
1109.41	103.13
1109.826	100.46
1110.242	99.21
1110.659	103.27
1111.075	100.07
1111.491	102.69
1111.908	100.7
1112.324	100.22
1112.74	102.81
1113.156	100.92
1113.572	100.73
1113.988	100.84
1114.404	99.24
1114.82	103.31
1115.236	94.8
1115.652	92.3
1116.068	98.39
1116.484	106.44
1116.9	103
1117.316	96.32
1117.732	121.79
1118.147	69.44
1118.563	-20.83
1118.979	516.67
