Data from JCR0010_SpectralonRef_Reflection_00001.txt Node
Date: Thu Jul 23 12:52:53 ACST 2020
User: Stacey Dix
Spectrometer: MAYP113282
Scans to average: 1
Trigger mode: 0
Integration Time (sec): 1.000000E-1
Electric dark correction enabled: true
Boxcar width: 0
XAxis mode: Wavelengths
Number of Pixels in Spectrum: 2068
>>>>>Begin Spectral Data<<<<<
198.791	-9.37
199.266	26.47
199.74	9.37
200.215	18.75
200.69	111.44
201.164	101.69
201.639	94.72
202.114	97.84
202.588	94.01
203.063	104.43
203.537	95.83
204.012	94.75
204.486	111.58
204.961	89.39
205.435	98.38
205.909	92.29
206.384	107.95
206.858	115.59
207.332	101.43
207.807	107.59
208.281	101.4
208.755	95.34
209.229	107.62
209.703	104.56
210.177	107.25
210.651	109.93
211.126	104.08
211.6	110.16
212.074	100.36
212.548	110.33
213.021	99.94
213.495	98.89
213.969	111.64
214.443	96.24
214.917	105.17
215.391	108.54
215.864	97.24
216.338	110.43
216.812	107.29
217.286	95.5
217.759	101.07
218.233	103.55
218.706	94.88
219.18	112.02
219.654	100.69
220.127	102.1
220.6	103.09
221.074	96.46
221.547	97.78
222.021	94.99
222.494	107.38
222.967	93.23
223.441	114.92
223.914	104.52
224.387	104.89
224.86	101.31
225.334	104.79
225.807	106.26
226.28	100.76
226.753	101.72
227.226	99.12
227.699	102.08
228.172	109.91
228.645	99.99
229.118	101.36
229.591	104.36
230.064	101.28
230.537	99.05
231.01	102.73
231.482	102.63
231.955	102.05
232.428	104.06
232.901	100.48
233.373	102.08
233.846	100.12
234.319	103.37
234.791	99.34
235.264	99.99
235.736	101.55
236.209	102.29
236.681	99.15
237.154	103.8
237.626	102.96
238.099	103.27
238.571	103.26
239.044	106.68
239.516	102.29
239.988	102.67
240.46	101.57
240.933	101.88
241.405	103.8
241.877	102.52
242.349	107.71
242.821	101.5
243.293	101.89
243.765	102.99
244.237	102.6
244.71	100.81
245.181	102.65
245.653	104.21
246.125	104.57
246.597	103.03
247.069	101.67
247.541	102.85
248.013	103.23
248.485	99.61
248.956	100.85
249.428	103.35
249.9	102.56
250.371	103.62
250.843	101.83
251.315	100.43
251.786	103.16
252.258	102.88
252.729	103.33
253.201	102.55
253.672	104.91
254.144	102.02
254.615	103.96
255.086	103.68
255.558	102.25
256.029	103.14
256.5	102.84
256.972	103.78
257.443	101.18
257.914	101.64
258.385	105.04
258.856	105.05
259.327	102.8
259.799	102.74
260.27	102.08
260.741	102.42
261.212	104.2
261.683	103.83
262.154	101.41
262.624	103.4
263.095	105.75
263.566	102.67
264.037	103.42
264.508	102.92
264.979	102.96
265.449	104.35
265.92	104.14
266.391	102.16
266.861	104.81
267.332	101.66
267.803	101.09
268.273	104.92
268.744	103.72
269.214	103.51
269.685	104.18
270.155	100.89
270.626	103.51
271.096	103.42
271.566	102.31
272.037	105.42
272.507	101.58
272.977	101.67
273.448	103.78
273.918	104.29
274.388	102.96
274.858	103.35
275.328	104.41
275.798	105.74
276.268	102.79
276.738	102.16
277.208	103.83
277.678	103.89
278.148	101.77
278.618	104.97
279.088	104.07
279.558	105.2
280.028	102.54
280.498	101.66
280.968	101.79
281.437	102.61
281.907	102.35
282.377	104.6
282.847	102.98
283.316	103.09
283.786	102.54
284.255	101.64
284.725	104.68
285.194	102.04
285.664	104.14
286.133	104.51
286.603	103.25
287.072	105.01
287.542	103.54
288.011	105.55
288.48	104.81
288.95	100.76
289.419	103.66
289.888	104.66
290.357	103.51
290.827	104.62
291.296	104.54
291.765	102.71
292.234	104.08
292.703	102
293.172	101.85
293.641	102.36
294.11	101.4
294.579	102.1
295.048	102.46
295.517	103.01
295.986	103.31
296.455	104.79
296.923	101.72
297.392	102.68
297.861	102.28
298.33	101.11
298.798	104.53
299.267	101.51
299.736	102.37
300.204	102.41
300.673	104.33
301.141	103
301.61	103.55
302.079	103.31
302.547	100.73
303.015	101.55
303.484	100.71
303.952	101.52
304.421	103.86
304.889	102.14
305.357	101.62
305.825	104.79
306.294	101.71
306.762	102.27
307.23	102.94
307.698	102.7
308.166	101.53
308.634	101.41
309.103	104.27
309.571	103.46
310.039	101.88
310.507	100.54
310.975	101.23
311.442	103.58
311.91	101.95
312.378	102.75
312.846	100.53
313.314	103.34
313.782	102.7
314.249	100.29
314.717	102.98
315.185	100.06
315.652	103.05
316.12	101.2
316.588	102.67
317.055	102.42
317.523	102.11
317.99	102.4
318.458	103.44
318.925	102.85
319.393	101.03
319.86	100.98
320.328	99.96
320.795	99.87
321.262	101.48
321.73	101.2
322.197	100.49
322.664	101.47
323.131	100.85
323.598	100.66
324.066	102.8
324.533	101.44
325	101.76
325.467	100.57
325.934	102.88
326.401	102.83
326.868	102.27
327.335	100.76
327.802	102.54
328.269	101.16
328.735	100.49
329.202	101.13
329.669	101.13
330.136	103.13
330.603	99.64
331.069	103
331.536	102.46
332.003	101.84
332.469	100.91
332.936	102.05
333.402	97.6
333.869	102.69
334.336	101.89
334.802	101.15
335.268	99.03
335.735	101.77
336.201	101.61
336.668	99.05
337.134	102.15
337.6	101.17
338.067	101.16
338.533	100.09
338.999	102.52
339.465	102.39
339.931	101.64
340.398	101.41
340.864	101.09
341.33	101.3
341.796	101.77
342.262	98.97
342.728	101.83
343.194	100.22
343.66	103.02
344.126	101.86
344.592	102.32
345.057	100.56
345.523	101.88
345.989	100.91
346.455	101.08
346.921	100.3
347.386	100.18
347.852	100.95
348.318	101.72
348.783	100.24
349.249	99.83
349.714	98.9
350.18	102.82
350.645	102.1
351.111	101.59
351.576	101.08
352.042	100.89
352.507	99.94
352.973	101.64
353.438	101.57
353.903	100.89
354.369	99.83
354.834	100.07
355.299	98.74
355.764	103.28
356.229	100.22
356.695	100.48
357.16	98.82
357.625	100.13
358.09	101.66
358.555	101.1
359.02	103.21
359.485	99.73
359.95	100.48
360.415	100.69
360.879	101.43
361.344	101.6
361.809	100.52
362.274	100.2
362.739	101.52
363.203	100.24
363.668	101.92
364.133	100.77
364.597	100.14
365.062	101.92
365.527	100.14
365.991	100
366.456	99.53
366.92	101.15
367.385	101.38
367.849	100.74
368.314	102.83
368.778	100.59
369.242	100.42
369.707	98.63
370.171	103.71
370.635	102.94
371.1	102.81
371.564	100.72
372.028	101.44
372.492	99.07
372.956	100.83
373.42	99.79
373.884	101.97
374.348	100.88
374.812	101.33
375.276	101.26
375.74	102.66
376.204	100.02
376.668	102.08
377.132	100.2
377.596	99.45
378.06	99.91
378.524	99.69
378.987	100.2
379.451	100.42
379.915	103.09
380.378	101.49
380.842	99.3
381.306	99.07
381.769	99.63
382.233	99.51
382.696	98.92
383.16	100.77
383.623	99.81
384.087	99.72
384.55	100.47
385.014	99.68
385.477	100.09
385.94	100.24
386.404	99.79
386.867	99.77
387.33	99.73
387.793	99.85
388.256	103.02
388.72	100.42
389.183	100.69
389.646	99.79
390.109	100.62
390.572	100.58
391.035	98.57
391.498	99.96
391.961	101.22
392.424	100.17
392.887	98.68
393.35	100.96
393.812	98.61
394.275	100.67
394.738	99.07
395.201	98.72
395.664	99.56
396.126	99.47
396.589	99.98
397.052	99.35
397.514	102.62
397.977	99.07
398.439	100.47
398.902	100.14
399.364	99.42
399.827	101
400.289	100.37
400.752	99.33
401.214	100.57
401.676	99.03
402.139	100.25
402.601	100.66
403.063	98.98
403.525	97.86
403.988	98.28
404.45	99.01
404.912	99.87
405.374	100.41
405.836	100.88
406.298	97.98
406.76	101.93
407.222	100.4
407.684	100.31
408.146	98.56
408.608	99.42
409.07	98.63
409.532	100.22
409.994	99.51
410.456	100.11
410.917	100.99
411.379	101.3
411.841	100.95
412.303	98.35
412.764	100.23
413.226	98.93
413.687	100.28
414.149	101.62
414.611	98.3
415.072	101.53
415.534	98.99
415.995	101.27
416.457	99.09
416.918	100.99
417.379	99.67
417.841	100.76
418.302	99.74
418.763	97.63
419.225	99.21
419.686	100.19
420.147	99.47
420.608	100.26
421.069	98.81
421.53	99.56
421.991	99.1
422.453	100.34
422.914	98.82
423.375	102.06
423.836	100.19
424.297	99.34
424.757	99.1
425.218	99.52
425.679	100.77
426.14	99.55
426.601	98.13
427.062	99.88
427.522	99.57
427.983	101.81
428.444	99.42
428.904	98.13
429.365	97.41
429.826	101.27
430.286	99.66
430.747	99.28
431.207	100.8
431.668	102.93
432.128	99.3
432.589	99.54
433.049	100.28
433.509	99.68
433.97	97.87
434.43	100.11
434.89	97.62
435.351	99.82
435.811	98.71
436.271	99.66
436.731	98.11
437.191	98.12
437.651	100.55
438.112	100.02
438.572	101.63
439.032	99.45
439.492	100.73
439.952	100.97
440.412	102.23
440.871	100.32
441.331	98.88
441.791	100.48
442.251	100.94
442.711	97.7
443.171	98.38
443.63	95.97
444.09	97.59
444.55	100.52
445.009	100.72
445.469	97.74
445.929	101.07
446.388	100.42
446.848	100.5
447.307	99.16
447.767	98.22
448.226	97.06
448.686	99.55
449.145	99.52
449.604	100.21
450.064	101.37
450.523	99.18
450.982	98.28
451.442	98.27
451.901	99.69
452.36	99.55
452.819	99.38
453.278	99.54
453.737	98.29
454.197	99.39
454.656	99.15
455.115	99.34
455.574	99.82
456.033	101.36
456.492	100.73
456.95	98.28
457.409	100.46
457.868	98.56
458.327	101.77
458.786	100.44
459.245	97.71
459.703	98.34
460.162	99.09
460.621	99.73
461.079	98.83
461.538	100
461.997	101
462.455	97.3
462.914	99.94
463.372	98.05
463.831	97.73
464.289	99.41
464.748	99.22
465.206	98.85
465.664	99.77
466.123	97.79
466.581	97.48
467.039	97.79
467.497	97.75
467.956	96.65
468.414	99.67
468.872	102.52
469.33	98.85
469.788	98.93
470.246	98.56
470.704	96.78
471.162	98.84
471.62	98.56
472.078	98.26
472.536	100.45
472.994	99.42
473.452	100.78
473.91	98.93
474.368	97.85
474.826	98.86
475.283	99.29
475.741	99.69
476.199	102.15
476.656	99.57
477.114	96.12
477.572	98.45
478.029	99.81
478.487	99.6
478.944	102.55
479.402	97.68
479.859	95.42
480.317	100.3
480.774	97.78
481.232	97.62
481.689	98.9
482.146	100.9
482.604	97
483.061	100.21
483.518	97.88
483.975	96.03
484.433	100.84
484.89	99
485.347	99.28
485.804	97.93
486.261	97.82
486.718	97.09
487.175	99.81
487.632	99.3
488.089	98.89
488.546	98.11
489.003	100.47
489.46	97.91
489.917	100.31
490.373	99.49
490.83	98.29
491.287	96.77
491.744	99.55
492.2	98.26
492.657	101.83
493.114	96.54
493.57	94.95
494.027	97.82
494.484	99.02
494.94	98.74
495.397	99.2
495.853	98.05
496.31	101.02
496.766	99.65
497.222	98.43
497.679	99.72
498.135	98.87
498.591	97.22
499.048	98.81
499.504	99.06
499.96	101.37
500.416	96.51
500.872	99.14
501.329	96.99
501.785	99.47
502.241	99.71
502.697	100.89
503.153	98.88
503.609	100.25
504.065	98.12
504.521	98.74
504.977	98.2
505.432	98.58
505.888	99.3
506.344	99.89
506.8	98.82
507.256	99.18
507.711	99.46
508.167	98.97
508.623	100.37
509.078	100
509.534	100.09
509.99	98.69
510.445	98.32
510.901	97.64
511.356	97.11
511.812	99.08
512.267	96.83
512.722	98.88
513.178	100.65
513.633	96.07
514.089	100.92
514.544	97.28
514.999	99.49
515.454	99.32
515.91	99.62
516.365	100.24
516.82	100.13
517.275	97.73
517.73	97.41
518.185	97.28
518.64	99.34
519.095	97.53
519.55	97.97
520.005	98.1
520.46	97.74
520.915	98.04
521.37	99.62
521.825	99.87
522.28	95.7
522.734	98.4
523.189	99.04
523.644	96.89
524.099	99.57
524.553	96.96
525.008	97.5
525.462	100.17
525.917	99.91
526.372	99.03
526.826	100.85
527.281	100.54
527.735	101.03
528.19	100.08
528.644	100.09
529.098	98.97
529.553	100.22
530.007	100
530.461	99.59
530.916	99
531.37	98.99
531.824	100.39
532.278	101.35
532.732	101.09
533.186	100.42
533.641	98.36
534.095	97.09
534.549	100.23
535.003	98.92
535.457	101.14
535.911	99.73
536.365	98.91
536.818	97.41
537.272	97.48
537.726	98.09
538.18	100.85
538.634	99.2
539.087	101.75
539.541	98.64
539.995	98.02
540.449	98.96
540.902	100.65
541.356	98.66
541.809	97.6
542.263	97.75
542.716	99.18
543.17	98.24
543.623	99.66
544.077	102.13
544.53	99.26
544.984	98.35
545.437	98.71
545.89	97.2
546.344	100.16
546.797	98.05
547.25	98.75
547.703	100.47
548.157	98.05
548.61	99.45
549.063	97.82
549.516	100
549.969	98.09
550.422	99.89
550.875	98.05
551.328	97.95
551.781	99.34
552.234	100.71
552.687	98.56
553.14	100.44
553.592	99.46
554.045	99.69
554.498	97.11
554.951	99.21
555.404	98.37
555.856	96.53
556.309	99.01
556.762	99.32
557.214	100.51
557.667	98.76
558.119	98.51
558.572	100.65
559.024	98.23
559.477	98.14
559.929	100.03
560.382	100.32
560.834	98.56
561.286	98.7
561.739	99.87
562.191	98.16
562.643	98.5
563.095	96.83
563.548	99.06
564	98.59
564.452	100.06
564.904	98.12
565.356	98.1
565.808	98.83
566.26	99.34
566.712	97.54
567.164	100.08
567.616	99.67
568.068	100.29
568.52	98.93
568.972	98.3
569.424	98.45
569.876	99.42
570.327	98.3
570.779	98.38
571.231	99.67
571.682	100.06
572.134	98.76
572.586	99.47
573.037	97.87
573.489	99.95
573.941	98.35
574.392	99.72
574.844	100.68
575.295	99.2
575.746	98.06
576.198	99.56
576.649	98.94
577.101	100.62
577.552	97.21
578.003	100.62
578.454	99.33
578.906	98.52
579.357	97.94
579.808	98.85
580.259	96.59
580.71	98.33
581.161	98.4
581.612	98.04
582.064	99.51
582.515	97.42
582.965	100.4
583.416	97.9
583.867	101.92
584.318	98.7
584.769	100.6
585.22	98.21
585.671	99.71
586.122	98.06
586.572	100.2
587.023	99.31
587.474	99.34
587.924	97.47
588.375	99.06
588.826	99
589.276	100.65
589.727	99.26
590.177	100.55
590.628	99.51
591.078	98.48
591.529	98.11
591.979	97.57
592.429	99.43
592.88	99.61
593.33	99.3
593.78	99.62
594.231	98.81
594.681	98.9
595.131	99.48
595.581	100.03
596.031	98.47
596.481	98.01
596.932	100.55
597.382	96.62
597.832	97.89
598.282	101.46
598.732	98.06
599.182	98.99
599.632	97.83
600.081	100.43
600.531	98.91
600.981	98.46
601.431	99.66
601.881	99.69
602.33	98.92
602.78	99.8
603.23	98.97
603.679	98.9
604.129	99.71
604.579	97.54
605.028	98.49
605.478	100.17
605.927	99.67
606.377	102.33
606.826	100
607.276	99.18
607.725	98.99
608.175	98.4
608.624	101
609.073	100.05
609.522	99.06
609.972	100.47
610.421	99.56
610.87	98.56
611.319	97.7
611.768	99.5
612.218	98.47
612.667	100
613.116	99.42
613.565	100.5
614.014	98.83
614.463	98.88
614.912	98.28
615.361	97.29
615.81	98.62
616.258	99.76
616.707	98.57
617.156	99.18
617.605	98.52
618.054	99.58
618.502	99.48
618.951	99.05
619.4	99.64
619.848	99.8
620.297	97.82
620.745	99.79
621.194	97.89
621.642	99.23
622.091	99.78
622.539	98.98
622.988	99.67
623.436	99.24
623.885	99
624.333	99.39
624.781	98.85
625.23	97.73
625.678	99.92
626.126	99.38
626.574	99.47
627.022	99.29
627.471	99.61
627.919	97.37
628.367	98.69
628.815	99.99
629.263	98.47
629.711	98.21
630.159	98.86
630.607	99.84
631.055	99.6
631.503	98.58
631.95	100.38
632.398	98.33
632.846	97.79
633.294	99.69
633.742	98.59
634.189	99.58
634.637	98.84
635.085	99.85
635.532	98.88
635.98	99.73
636.427	98.24
636.875	98.14
637.323	100.4
637.77	99.42
638.217	97.96
638.665	98.94
639.112	97.94
639.56	99.18
640.007	99.43
640.454	98.62
640.902	97.03
641.349	99.36
641.796	99.45
642.243	99.5
642.69	100.02
643.138	98.85
643.585	100.09
644.032	98.4
644.479	98.98
644.926	99.47
645.373	100.34
645.82	100.11
646.267	99.18
646.714	97.95
647.161	99.88
647.607	98.47
648.054	99.52
648.501	99
648.948	98.29
649.395	99.75
649.841	100.21
650.288	98.68
650.735	100.03
651.181	97.65
651.628	100.07
652.075	98.98
652.521	96.98
652.968	98.97
653.414	98.93
653.861	98.89
654.307	98.01
654.753	98.6
655.2	97.82
655.646	98.22
656.092	97.62
656.539	99.31
656.985	97.59
657.431	98.62
657.877	98.5
658.324	98.08
658.77	98.95
659.216	99.9
659.662	99.64
660.108	99.9
660.554	99.15
661	99.43
661.446	99.28
661.892	99.33
662.338	99.13
662.784	98.6
663.23	98.58
663.675	99.22
664.121	98.57
664.567	99.67
665.013	98.97
665.458	98.64
665.904	98.93
666.35	97.64
666.795	99.07
667.241	99.39
667.687	98.55
668.132	99.21
668.578	99.2
669.023	97.89
669.469	99.34
669.914	99.76
670.359	98.11
670.805	99.92
671.25	98.56
671.695	99.04
672.141	98.85
672.586	99.36
673.031	97.48
673.476	99.69
673.922	99.36
674.367	97.91
674.812	98.43
675.257	98.8
675.702	98.91
676.147	98.29
676.592	99.07
677.037	99.16
677.482	99
677.927	98.85
678.372	100.06
678.817	98.63
679.261	99.37
679.706	98.96
680.151	98.87
680.596	98.19
681.04	99.5
681.485	98.85
681.93	99.73
682.374	99.72
682.819	98.94
683.264	99.33
683.708	98.46
684.153	99.13
684.597	99.05
685.042	100.05
685.486	98.71
685.93	98.81
686.375	99.65
686.819	99.66
687.263	100.04
687.708	99.58
688.152	99.27
688.596	98.28
689.04	98.39
689.485	99.67
689.929	98.99
690.373	99.2
690.817	99.36
691.261	99.2
691.705	98.05
692.149	98.66
692.593	100.24
693.037	99.48
693.481	100.76
693.925	98.97
694.369	98.8
694.812	98.5
695.256	99.62
695.7	99.31
696.144	98.88
696.587	99.19
697.031	99.38
697.475	99.87
697.918	99.09
698.362	98.67
698.806	99.02
699.249	98.42
699.693	98.93
700.136	99.62
700.58	99.56
701.023	100.33
701.466	99.5
701.91	98.79
702.353	99.21
702.796	98.24
703.24	99.16
703.683	98.71
704.126	98.32
704.569	98.14
705.013	98.35
705.456	100.14
705.899	98.38
706.342	100.54
706.785	98.61
707.228	99.44
707.671	99.01
708.114	99.1
708.557	98.82
709	99.8
709.443	97.92
709.886	98.51
710.328	100.27
710.771	99.06
711.214	99.4
711.657	98.66
712.099	98.31
712.542	99.81
712.985	100.04
713.427	99.26
713.87	98.77
714.313	98.27
714.755	98.85
715.198	98.53
715.64	99.11
716.083	99.2
716.525	98.63
716.967	98.76
717.41	99.17
717.852	98.9
718.295	98.64
718.737	99.01
719.179	99.63
719.621	98.95
720.063	99.07
720.506	99.96
720.948	99.43
721.39	98.99
721.832	98.87
722.274	98.85
722.716	99.25
723.158	98.99
723.6	97.92
724.042	99.96
724.484	98.86
724.926	98.43
725.368	97.13
725.81	98.78
726.251	99.65
726.693	98.71
727.135	98.51
727.577	99.32
728.018	100.32
728.46	98.8
728.902	99.71
729.343	98.85
729.785	99.09
730.226	98.81
730.668	98.98
731.109	99.39
731.551	99.78
731.992	98.7
732.434	99.65
732.875	99.2
733.316	99.24
733.758	98.2
734.199	99.3
734.64	99.65
735.081	98.57
735.523	98.41
735.964	98.49
736.405	99.72
736.846	98.56
737.287	99.09
737.728	99.28
738.169	99.59
738.61	99.13
739.051	99.62
739.492	99.29
739.933	98.34
740.374	99.04
740.815	98.79
741.256	99.54
741.696	99.55
742.137	99.45
742.578	99.57
743.019	98.73
743.459	99.1
743.9	100.3
744.341	98.12
744.781	98.59
745.222	99.26
745.662	98.26
746.103	98.31
746.543	99.16
746.984	99.29
747.424	98.49
747.865	99.05
748.305	97.84
748.745	98.18
749.186	98.9
749.626	99.02
750.066	99.79
750.506	98.75
750.947	99.14
751.387	97.8
751.827	99.18
752.267	99.03
752.707	98.08
753.147	99.6
753.587	98.01
754.027	99.26
754.467	99.57
754.907	98.91
755.347	99.14
755.787	98.92
756.227	98.96
756.667	99.03
757.107	99.46
757.546	99.14
757.986	98.5
758.426	97.66
758.865	98.08
759.305	99.48
759.745	98.01
760.184	98.51
760.624	99.37
761.063	98.65
761.503	98.86
761.943	99.12
762.382	99.13
762.821	98.2
763.261	99.3
763.7	99.12
764.14	98.69
764.579	99.51
765.018	99.06
765.457	98.1
765.897	98.57
766.336	100.09
766.775	98.84
767.214	99.04
767.653	98.48
768.092	98.49
768.531	98.9
768.97	99.47
769.409	98.24
769.848	98.49
770.287	99.29
770.726	99.02
771.165	98.89
771.604	99.06
772.043	98.47
772.482	99.4
772.92	98.48
773.359	99.97
773.798	98.43
774.237	98.32
774.675	99.5
775.114	99.53
775.553	98.88
775.991	97.89
776.43	99.1
776.868	98.07
777.307	98.95
777.745	98.87
778.184	99.56
778.622	98.51
779.06	98.82
779.499	99.06
779.937	98.88
780.375	99.18
780.814	98.64
781.252	98.85
781.69	98.3
782.128	98.63
782.566	97.7
783.004	98.68
783.443	99.16
783.881	98.21
784.319	98.22
784.757	98.69
785.195	98.91
785.633	98.63
786.071	98.33
786.508	98.77
786.946	99.45
787.384	98.94
787.822	98.7
788.26	98.25
788.697	98.34
789.135	98.99
789.573	98.56
790.011	98.95
790.448	98.79
790.886	98.76
791.323	99.99
791.761	99.31
792.198	97.89
792.636	98.91
793.073	99.46
793.511	99.14
793.948	99.24
794.386	99.41
794.823	99.38
795.26	99.24
795.698	99.04
796.135	97.79
796.572	97.38
797.009	99.77
797.446	98.19
797.884	98.12
798.321	99.19
798.758	99.3
799.195	98.19
799.632	99.26
800.069	98.72
800.506	98.7
800.943	99.42
801.38	99.11
801.817	98.98
802.254	98.45
802.69	99.18
803.127	98.59
803.564	99.53
804.001	98.93
804.438	98.7
804.874	98.61
805.311	99.44
805.748	98.3
806.184	98.46
806.621	98.39
807.057	98.97
807.494	100.42
807.93	98.56
808.367	99.06
808.803	99.61
809.24	97.72
809.676	98.98
810.112	98.87
810.549	98.17
810.985	98.85
811.421	99.18
811.857	97.91
812.294	98.3
812.73	99.28
813.166	99.6
813.602	98.27
814.038	97.86
814.474	97.97
814.91	98.71
815.346	99.1
815.782	98.67
816.218	98.76
816.654	99.4
817.09	99.01
817.526	97.84
817.962	99.59
818.398	98.15
818.833	100.1
819.269	98.98
819.705	98.35
820.141	98.89
820.576	98.61
821.012	98.78
821.447	99.51
821.883	98.59
822.319	98.36
822.754	99.44
823.19	98.56
823.625	98.49
824.061	99.04
824.496	99.88
824.931	98.59
825.367	98.92
825.802	99.6
826.237	99.45
826.673	99.5
827.108	98.74
827.543	98.87
827.978	99.33
828.413	98.5
828.849	98.38
829.284	98.42
829.719	98.8
830.154	100.2
830.589	98.63
831.024	99.08
831.459	99.02
831.894	99.27
832.329	98.76
832.763	99.07
833.198	99.22
833.633	99.57
834.068	99.66
834.503	99.36
834.937	99
835.372	98.5
835.807	98.75
836.241	98.36
836.676	99.57
837.111	98.77
837.545	98.36
837.98	98.08
838.414	99.26
838.849	97.79
839.283	99.22
839.717	98.4
840.152	98.31
840.586	98.76
841.021	98.8
841.455	99.33
841.889	98.71
842.323	98.47
842.758	98.52
843.192	98.11
843.626	99.24
844.06	98.13
844.494	99.94
844.928	97.69
845.362	97.38
845.796	98.8
846.23	98.65
846.664	98.64
847.098	99.06
847.532	98.38
847.966	98.45
848.4	98.41
848.834	98.16
849.267	98.76
849.701	98.99
850.135	98.18
850.569	98.36
851.002	98.93
851.436	98.54
851.87	98.44
852.303	99.05
852.737	98.58
853.17	98.27
853.604	99.76
854.037	98.99
854.471	98.82
854.904	98.66
855.337	98.83
855.771	99.23
856.204	98.48
856.637	99.02
857.071	98.6
857.504	99.12
857.937	99.49
858.37	99.24
858.804	98.55
859.237	99.24
859.67	99.15
860.103	99.64
860.536	98.92
860.969	99.01
861.402	98.89
861.835	98.11
862.268	98.93
862.701	98.55
863.134	98.41
863.566	97.68
863.999	98.57
864.432	98.94
864.865	98.41
865.298	99.25
865.73	98.64
866.163	98.42
866.596	98.35
867.028	98.97
867.461	98.05
867.893	98.98
868.326	98.47
868.758	98.62
869.191	98.7
869.623	99.1
870.056	98.72
870.488	99.44
870.92	99.03
871.353	98.95
871.785	98.78
872.217	99.23
872.65	98.28
873.082	98.39
873.514	99.07
873.946	98.13
874.378	98.84
874.81	98.63
875.243	99.17
875.675	98.15
876.107	98.96
876.539	98.05
876.971	99.19
877.403	98.94
877.834	98.33
878.266	98.04
878.698	98.89
879.13	99.33
879.562	98.44
879.994	98.24
880.425	98.49
880.857	98.59
881.289	98.64
881.72	98.42
882.152	98.46
882.584	99.1
883.015	98.4
883.447	97.93
883.878	98.7
884.31	98.69
884.741	99.43
885.173	98.82
885.604	98.76
886.035	98.24
886.467	98.33
886.898	98.81
887.329	98.46
887.76	98.38
888.192	99.04
888.623	99.1
889.054	98.76
889.485	99.17
889.916	98.11
890.347	99.03
890.778	99.22
891.209	97.81
891.64	99.54
892.071	99.12
892.502	99.19
892.933	98.76
893.364	98.55
893.795	99.57
894.226	98.58
894.657	99.1
895.087	98.22
895.518	98.92
895.949	99.05
896.38	99.11
896.81	98.86
897.241	98.51
897.671	98.83
898.102	99.15
898.533	99.01
898.963	98.88
899.394	98.78
899.824	99.04
900.254	99.27
900.685	98.59
901.115	99.07
901.546	98.8
901.976	98.4
902.406	98.37
902.836	98.67
903.267	99.02
903.697	98.47
904.127	98.01
904.557	97.97
904.987	98.74
905.417	99.51
905.847	98.92
906.277	98.57
906.707	98.69
907.137	98.45
907.567	98.81
907.997	98.88
908.427	98.9
908.857	98.4
909.287	99
909.717	98.72
910.146	99.12
910.576	99.52
911.006	98.41
911.436	98.85
911.865	98.59
912.295	97.87
912.724	98.87
913.154	98.04
913.584	98.61
914.013	98.73
914.443	98.67
914.872	98.33
915.302	98.71
915.731	98.99
916.16	99.08
916.59	99.04
917.019	98.05
917.448	99.14
917.878	99.08
918.307	99.24
918.736	98.58
919.165	98.84
919.594	98.73
920.023	98.21
920.452	99
920.882	98.9
921.311	98.3
921.74	99.29
922.169	99.57
922.597	98.64
923.026	99.33
923.455	99.53
923.884	98.51
924.313	98.65
924.742	98.47
925.171	99.01
925.599	98.95
926.028	98.83
926.457	98.59
926.885	98.75
927.314	99.02
927.743	98.68
928.171	98.03
928.6	98.05
929.028	98.71
929.457	99.04
929.885	98.55
930.314	98.33
930.742	98.67
931.17	98.02
931.599	98.48
932.027	98.87
932.455	98.76
932.884	99.05
933.312	98.98
933.74	98.82
934.168	98.66
934.596	98.75
935.025	99.21
935.453	98.8
935.881	99.01
936.309	98.6
936.737	98.52
937.165	98.37
937.593	98.1
938.021	99.01
938.449	99.15
938.876	99.16
939.304	98.1
939.732	98.72
940.16	98.31
940.588	99.13
941.015	98.98
941.443	98.91
941.871	97.74
942.298	99.1
942.726	99.52
943.154	98.23
943.581	99
944.009	98.65
944.436	97.66
944.864	99.99
945.291	100
945.718	99.51
946.146	98.13
946.573	98.91
947.001	98.05
947.428	98.17
947.855	99.13
948.282	98.44
948.71	98.75
949.137	98.78
949.564	98.39
949.991	98.5
950.418	98.27
950.845	98.41
951.272	98.81
951.699	98.7
952.126	98.8
952.553	99.71
952.98	98.9
953.407	98.47
953.834	98.18
954.261	98.22
954.688	98.39
955.114	99.33
955.541	98.96
955.968	99.25
956.395	98.84
956.821	98.74
957.248	98.56
957.674	98.57
958.101	98.65
958.528	97.96
958.954	98.26
959.381	99.07
959.807	98.86
960.234	98.59
960.66	98.48
961.086	98.47
961.513	99.24
961.939	98.96
962.365	98.24
962.792	99.05
963.218	98.43
963.644	98.54
964.07	98.02
964.496	99.14
964.923	98.61
965.349	98.89
965.775	98.59
966.201	98.77
966.627	98.92
967.053	98.56
967.479	99.11
967.905	98.7
968.331	98.97
968.756	98.81
969.182	99.08
969.608	98.73
970.034	99.04
970.46	98.83
970.885	98.52
971.311	98.86
971.737	98.65
972.162	98.98
972.588	98.32
973.014	98.83
973.439	98.95
973.865	99.06
974.29	98.78
974.716	98.4
975.141	98.9
975.567	98.58
975.992	99.04
976.417	99.02
976.843	99
977.268	99.61
977.693	100
978.119	100
978.544	100
978.969	100
979.394	100
979.819	100
980.244	100
980.669	100
981.095	100
981.52	100
981.945	100
982.369	100
982.794	100
983.219	100
983.644	100
984.069	100
984.494	100
984.919	100
985.343	99.84
985.768	99.41
986.193	99.22
986.618	99.51
987.042	99.15
987.467	99.35
987.891	99.58
988.316	99.73
988.741	100
989.165	100
989.59	100
990.014	100
990.438	100
990.863	100
991.287	100
991.712	100
992.136	100
992.56	100
992.984	100
993.409	100
993.833	100
994.257	100
994.681	100
995.105	100
995.529	100
995.953	100
996.377	100
996.801	99.64
997.225	100
997.649	100
998.073	100
998.497	100
998.921	100
999.345	100
999.769	100
1000.192	100
1000.616	100
1001.04	100
1001.464	100
1001.887	100
1002.311	99.77
1002.734	99.64
1003.158	99.25
1003.582	99.08
1004.005	99.45
1004.429	98.31
1004.852	98.78
1005.275	99
1005.699	98.59
1006.122	98.73
1006.546	98.53
1006.969	98.51
1007.392	98.22
1007.815	98.66
1008.239	99.11
1008.662	98.44
1009.085	99.09
1009.508	98.81
1009.931	98.33
1010.354	99.17
1010.778	98.78
1011.201	98.9
1011.624	98.61
1012.047	98.55
1012.469	98.49
1012.892	98.92
1013.315	98.76
1013.738	98.55
1014.161	99.47
1014.584	99.36
1015.007	99.73
1015.429	98.93
1015.852	98.94
1016.275	98.6
1016.697	97.88
1017.12	98.23
1017.543	98.22
1017.965	98.25
1018.388	98.75
1018.81	98.94
1019.233	99.05
1019.655	98.5
1020.078	98.67
1020.5	98.48
1020.922	98.74
1021.345	98.11
1021.767	98.61
1022.189	99.25
1022.612	98.7
1023.034	98.63
1023.456	98.95
1023.878	98.8
1024.301	99.16
1024.723	99.02
1025.145	99.3
1025.567	98.69
1025.989	98.95
1026.411	99.2
1026.833	99.07
1027.255	99.02
1027.677	98.85
1028.099	98.95
1028.52	98.91
1028.942	98.69
1029.364	98.45
1029.786	99.8
1030.208	99.13
1030.629	98.4
1031.051	99.52
1031.473	99.02
1031.894	99.26
1032.316	98.17
1032.738	98.28
1033.159	98.51
1033.581	98.42
1034.002	99.14
1034.424	98.58
1034.845	99.81
1035.267	98.16
1035.688	98.44
1036.109	99.46
1036.531	99.36
1036.952	97.92
1037.373	98.25
1037.794	97.89
1038.216	99.33
1038.637	98.93
1039.058	98.52
1039.479	98.8
1039.9	98.19
1040.321	98.28
1040.742	99.16
1041.163	98.25
1041.584	98.67
1042.005	98.9
1042.426	99.49
1042.847	99.33
1043.268	99.26
1043.689	97.84
1044.11	98.22
1044.53	99.42
1044.951	98.23
1045.372	97.68
1045.793	98.53
1046.213	98.26
1046.634	99.57
1047.055	98.8
1047.475	98.61
1047.896	98.13
1048.316	98.8
1048.737	99.38
1049.157	98.4
1049.578	98.51
1049.998	98.15
1050.419	98.38
1050.839	99.11
1051.259	98.79
1051.68	99.2
1052.1	98.3
1052.52	99.09
1052.94	98.27
1053.361	99.24
1053.781	98.82
1054.201	98.53
1054.621	99.42
1055.041	98.74
1055.461	99.26
1055.881	98.03
1056.301	99.56
1056.721	98.41
1057.141	98.7
1057.561	98.27
1057.981	99.01
1058.401	99.03
1058.82	98.21
1059.24	98.66
1059.66	98.6
1060.08	99.98
1060.499	99.79
1060.919	99.13
1061.339	98.7
1061.758	99.12
1062.178	99.33
1062.598	97.86
1063.017	98
1063.437	98.29
1063.856	98.33
1064.276	98.12
1064.695	99.49
1065.114	98.8
1065.534	99.76
1065.953	98.63
1066.372	99.5
1066.792	99.32
1067.211	98.38
1067.63	99.19
1068.049	98.61
1068.469	99.13
1068.888	97.71
1069.307	99.75
1069.726	98.49
1070.145	98.7
1070.564	98.84
1070.983	99.28
1071.402	98.74
1071.821	98.39
1072.24	97.47
1072.659	98.95
1073.078	98.41
1073.496	98.2
1073.915	98.1
1074.334	99.1
1074.753	99.97
1075.171	98.15
1075.59	97.81
1076.009	97.6
1076.427	99.09
1076.846	97.83
1077.265	97.81
1077.683	98.91
1078.102	98.43
1078.52	97.9
1078.939	99.38
1079.357	99.02
1079.776	99.36
1080.194	99.5
1080.612	99.48
1081.031	98.86
1081.449	99
1081.867	98.29
1082.285	99.48
1082.704	97.21
1083.122	97.94
1083.54	100.26
1083.958	97.73
1084.376	99.35
1084.794	100.22
1085.212	98.59
1085.63	98.25
1086.048	98.67
1086.466	98.61
1086.884	97.6
1087.302	99.52
1087.72	97.83
1088.138	99.8
1088.555	98.28
1088.973	100.63
1089.391	99.01
1089.809	98.26
1090.226	98.89
1090.644	100.26
1091.062	96.99
1091.479	98.68
1091.897	98.59
1092.314	100.36
1092.732	98.39
1093.15	99.57
1093.567	99.15
1093.984	97.48
1094.402	97.21
1094.819	99.33
1095.237	98.19
1095.654	97.92
1096.071	99.73
1096.488	97.87
1096.906	101.29
1097.323	99.03
1097.74	97.99
1098.157	98.31
1098.574	98.05
1098.991	95.82
1099.409	96.81
1099.826	99.29
1100.243	101.1
1100.66	100.17
1101.077	99.15
1101.494	97.2
1101.91	98.93
1102.327	98.58
1102.744	98.11
1103.161	97.71
1103.578	100.42
1103.994	99.35
1104.411	98.88
1104.828	97.49
1105.245	100.46
1105.661	98
1106.078	99.03
1106.494	99.18
1106.911	100.05
1107.328	100.21
1107.744	99.43
1108.161	99.7
1108.577	101.37
1108.993	99.85
1109.41	96.28
1109.826	97.86
1110.242	99.27
1110.659	102.71
1111.075	100.49
1111.491	98.06
1111.908	96.66
1112.324	96.14
1112.74	99.72
1113.156	98.82
1113.572	101.26
1113.988	98.39
1114.404	99.99
1114.82	95.28
1115.236	97.31
1115.652	98.81
1116.068	98.95
1116.484	98.95
1116.9	101.29
1117.316	97.48
1117.732	111.82
1118.147	81
1118.563	53.57
1118.979	-1350
