Data from JCR0004_Plasticine_Reflection_00001.txt Node
Date: Wed Jul 22 13:42:11 ACST 2020
User: Stacey Dix
Spectrometer: MAYP113282
Scans to average: 1
Trigger mode: 0
Integration Time (sec): 1.000000E-1
Electric dark correction enabled: true
Boxcar width: 0
XAxis mode: Wavelengths
Number of Pixels in Spectrum: 2068
>>>>>Begin Spectral Data<<<<<
198.791	-322.22
199.266	766.67
199.74	233.33
200.215	52.38
200.69	42.12
201.164	49.02
201.639	2.83
202.114	49.88
202.588	55.68
203.063	33.33
203.537	37.48
204.012	50.95
204.486	39.79
204.961	30.02
205.435	14.24
205.909	37.6
206.384	19.88
206.858	36.26
207.332	40.28
207.807	34.51
208.281	22.78
208.755	32.75
209.229	47.11
209.703	32.36
210.177	35.7
210.651	44.4
211.126	23.94
211.6	34.91
212.074	32.29
212.548	35.76
213.021	25.56
213.495	36.83
213.969	27.56
214.443	30.33
214.917	23.32
215.391	22.25
215.864	29.76
216.338	21.03
216.812	15.23
217.286	38.3
217.759	11.17
218.233	11.31
218.706	25.79
219.18	18.7
219.654	18.73
220.127	12.97
220.6	13.05
221.074	16.7
221.547	14.27
222.021	18.77
222.494	9.94
222.967	12.2
223.441	14.91
223.914	11.54
224.387	11.55
224.86	11.5
225.334	10.16
225.807	5.77
226.28	9.1
226.753	6.69
227.226	7.91
227.699	9.36
228.172	5.35
228.645	8.13
229.118	7.54
229.591	6.85
230.064	3.82
230.537	6.32
231.01	3.86
231.482	5.8
231.955	3.86
232.428	4.77
232.901	4.38
233.373	4.11
233.846	5.47
234.319	3.61
234.791	4.45
235.264	6.12
235.736	3.74
236.209	5.19
236.681	4.22
237.154	5.85
237.626	3.48
238.099	3.35
238.571	3.32
239.044	4.26
239.516	4.54
239.988	3.58
240.46	2.6
240.933	3.09
241.405	4.93
241.877	3.29
242.349	4.72
242.821	3.93
243.293	4
243.765	3.61
244.237	4.13
244.71	3.63
245.181	2.7
245.653	4.2
246.125	3.18
246.597	4.02
247.069	4.31
247.541	2.84
248.013	3.32
248.485	3.28
248.956	3.71
249.428	4.32
249.9	4.63
250.371	4.26
250.843	3.18
251.315	3.04
251.786	2.32
252.258	3.12
252.729	3.68
253.201	2.58
253.672	3.16
254.144	3.14
254.615	3.16
255.086	3.03
255.558	2.62
256.029	2.84
256.5	3.04
256.972	2.73
257.443	3.32
257.914	2.72
258.385	2.52
258.856	2.67
259.327	2.46
259.799	1.86
260.27	2.04
260.741	2.44
261.212	2.12
261.683	2.26
262.154	2.52
262.624	2.91
263.095	3.13
263.566	2.5
264.037	2.26
264.508	2.71
264.979	2.67
265.449	2.92
265.92	2.32
266.391	2.23
266.861	2.44
267.332	2.36
267.803	2.82
268.273	2.25
268.744	2.88
269.214	2.54
269.685	2.34
270.155	2.36
270.626	2.57
271.096	1.94
271.566	2.32
272.037	2.91
272.507	2.58
272.977	2.68
273.448	1.86
273.918	2.2
274.388	2.48
274.858	2.58
275.328	2.64
275.798	2.67
276.268	2.51
276.738	3.52
277.208	2.99
277.678	2.9
278.148	2.55
278.618	2.52
279.088	2.49
279.558	2.86
280.028	2.73
280.498	2.56
280.968	2.82
281.437	2.81
281.907	2.45
282.377	2.22
282.847	1.8
283.316	2.38
283.786	2.6
284.255	2.37
284.725	2.83
285.194	2.35
285.664	1.77
286.133	2.24
286.603	1.7
287.072	2.43
287.542	2.46
288.011	2.8
288.48	2.38
288.95	2.12
289.419	2.65
289.888	2.07
290.357	2.72
290.827	2.43
291.296	2.52
291.765	2.01
292.234	2.19
292.703	2.15
293.172	2.66
293.641	2.53
294.11	1.6
294.579	2.07
295.048	2.49
295.517	2.62
295.986	2.1
296.455	2.32
296.923	2.7
297.392	2.8
297.861	2.47
298.33	1.84
298.798	2.95
299.267	2.07
299.736	2.39
300.204	2.02
300.673	3.28
301.141	2.27
301.61	2.28
302.079	2.25
302.547	2.6
303.015	2.04
303.484	1.92
303.952	2.84
304.421	2.3
304.889	2.54
305.357	2.29
305.825	1.93
306.294	2.88
306.762	2.02
307.23	2.28
307.698	1.76
308.166	2.97
308.634	2.36
309.103	2.28
309.571	1.93
310.039	2.63
310.507	2.32
310.975	2.55
311.442	2.81
311.91	2.18
312.378	2.39
312.846	2.34
313.314	2.45
313.782	1.88
314.249	2.13
314.717	2.43
315.185	3.13
315.652	2.07
316.12	2.25
316.588	2.8
317.055	2.93
317.523	2.63
317.99	2.63
318.458	2.81
318.925	2.09
319.393	2.6
319.86	2.6
320.328	3.07
320.795	2.1
321.262	2.73
321.73	2.24
322.197	2.33
322.664	2.21
323.131	3.1
323.598	2.48
324.066	1.95
324.533	3.37
325	3.4
325.467	2.87
325.934	3.22
326.401	2.85
326.868	3.49
327.335	3.14
327.802	2.77
328.269	3.6
328.735	2.77
329.202	2.94
329.669	2.94
330.136	2.75
330.603	2.86
331.069	3.14
331.536	4.27
332.003	3.9
332.469	3.47
332.936	4.08
333.402	3.81
333.869	4.19
334.336	4.18
334.802	4.08
335.268	4.11
335.735	3.92
336.201	4.07
336.668	4.5
337.134	4.66
337.6	3.19
338.067	4.47
338.533	4.66
338.999	4.37
339.465	4.28
339.931	4.57
340.398	4.8
340.864	4.42
341.33	5.04
341.796	4.8
342.262	4.25
342.728	5.37
343.194	4.6
343.66	6.19
344.126	4.88
344.592	5.27
345.057	5.2
345.523	5.22
345.989	5.75
346.455	5.47
346.921	7.13
347.386	6.49
347.852	7.09
348.318	7.47
348.783	7.81
349.249	7.43
349.714	7.75
350.18	7.51
350.645	6.9
351.111	6.33
351.576	8.33
352.042	8.82
352.507	8.09
352.973	8.01
353.438	9.61
353.903	10
354.369	9.24
354.834	8.92
355.299	8.53
355.764	9.87
356.229	10.07
356.695	10.27
357.16	10.44
357.625	11.1
358.09	10.98
358.555	11.86
359.02	10.08
359.485	12.16
359.95	12.48
360.415	12.68
360.879	12.36
361.344	13.03
361.809	14.56
362.274	14.13
362.739	14.44
363.203	14.28
363.668	15.2
364.133	14.88
364.597	16.11
365.062	15.79
365.527	17.25
365.991	16.89
366.456	17.94
366.92	18.52
367.385	16.84
367.849	17.29
368.314	19.5
368.778	19.15
369.242	19.36
369.707	19.69
370.171	19.75
370.635	20.24
371.1	21.11
371.564	21.79
372.028	21.9
372.492	22.38
372.956	22.21
373.42	22.44
373.884	22.45
374.348	24.05
374.812	24.71
375.276	22.86
375.74	24.51
376.204	23.91
376.668	24.48
377.132	25.36
377.596	25.58
378.06	25.24
378.524	26.93
378.987	25.23
379.451	25.88
379.915	25.86
380.378	26.73
380.842	27.44
381.306	25.92
381.769	26.96
382.233	25.69
382.696	29.08
383.16	28.14
383.623	28.18
384.087	28.23
384.55	28.37
385.014	27.7
385.477	28.1
385.94	28.29
386.404	28.38
386.867	29.47
387.33	28.55
387.793	29.82
388.256	27.21
388.72	29.13
389.183	28.47
389.646	29.51
390.109	28.15
390.572	29.4
391.035	30.2
391.498	29.62
391.961	28.17
392.424	30.52
392.887	28.29
393.35	30.24
393.812	29.73
394.275	29.13
394.738	30.13
395.201	29.87
395.664	29.45
396.126	30.82
396.589	30.55
397.052	31.53
397.514	30.4
397.977	30.3
398.439	29.94
398.902	31.19
399.364	30.8
399.827	29.41
400.289	30.56
400.752	31.33
401.214	31.41
401.676	31.32
402.139	30.8
402.601	31.17
403.063	32.23
403.525	30.93
403.988	31.49
404.45	30.93
404.912	29.45
405.374	32.74
405.836	30.13
406.298	30.56
406.76	30.87
407.222	32.66
407.684	31.56
408.146	31.44
408.608	30.81
409.07	31.08
409.532	31.39
409.994	30.38
410.456	30.59
410.917	31.87
411.379	32.84
411.841	31.3
412.303	32.37
412.764	31.28
413.226	31.43
413.687	31.56
414.149	32.85
414.611	32.41
415.072	33.41
415.534	32.69
415.995	32.53
416.457	33.97
416.918	32.58
417.379	32.38
417.841	33.44
418.302	33.5
418.763	32.24
419.225	34.25
419.686	33.96
420.147	33.01
420.608	33.49
421.069	34.22
421.53	32.8
421.991	33.63
422.453	34.76
422.914	34.74
423.375	33.7
423.836	33.6
424.297	34.29
424.757	33.53
425.218	34.68
425.679	34.22
426.14	33.21
426.601	34.62
427.062	35.47
427.522	33.93
427.983	35.14
428.444	34.56
428.904	35.17
429.365	35.8
429.826	32.81
430.286	33.95
430.747	34.04
431.207	34.77
431.668	33.81
432.128	33.92
432.589	32.42
433.049	36.5
433.509	34.2
433.97	34.92
434.43	37.79
434.89	37.22
435.351	34.98
435.811	36.29
436.271	35.07
436.731	34.53
437.191	35.71
437.651	35.53
438.112	36.84
438.572	37.13
439.032	35.68
439.492	34.3
439.952	35.45
440.412	36.97
440.871	37.23
441.331	37.57
441.791	37.29
442.251	37.13
442.711	35.49
443.171	34.98
443.63	37.46
444.09	36.09
444.55	38.72
445.009	36.1
445.469	36.32
445.929	38.23
446.388	38.33
446.848	37.94
447.307	36.16
447.767	35.86
448.226	36.75
448.686	37.72
449.145	36.69
449.604	37.01
450.064	36.43
450.523	38.09
450.982	35.93
451.442	37.49
451.901	38.28
452.36	38.96
452.819	40.3
453.278	37.56
453.737	38
454.197	38.62
454.656	40.06
455.115	38.31
455.574	38.69
456.033	38.81
456.492	38.53
456.95	37.92
457.409	37.69
457.868	37.4
458.327	36.45
458.786	37.66
459.245	36.7
459.703	37.51
460.162	38.66
460.621	37.37
461.079	40.3
461.538	38.07
461.997	39.7
462.455	37.05
462.914	38
463.372	36.74
463.831	37.91
464.289	39.28
464.748	39.38
465.206	38.16
465.664	38.32
466.123	38.73
466.581	39.05
467.039	37.84
467.497	38.79
467.956	38.82
468.414	39.67
468.872	38.62
469.33	39.65
469.788	38.45
470.246	40.77
470.704	37.97
471.162	38.3
471.62	38.22
472.078	38.39
472.536	38.78
472.994	38.56
473.452	39.57
473.91	39.93
474.368	39.01
474.826	39.11
475.283	41.01
475.741	39.67
476.199	38.55
476.656	38.9
477.114	42.21
477.572	36.87
478.029	41.34
478.487	38.68
478.944	39.73
479.402	40.33
479.859	41.4
480.317	37.48
480.774	40.06
481.232	41.37
481.689	37.26
482.146	38.62
482.604	38.38
483.061	39.12
483.518	42.24
483.975	39.21
484.433	40.79
484.89	38.33
485.347	40.83
485.804	40.9
486.261	42.14
486.718	41.52
487.175	42.09
487.632	41
488.089	39.35
488.546	43.8
489.003	40.94
489.46	40.93
489.917	37.24
490.373	39.97
490.83	41.59
491.287	39.89
491.744	40.44
492.2	39.22
492.657	40.83
493.114	36.53
493.57	38.98
494.027	40.91
494.484	39.39
494.94	42.46
495.397	39.99
495.853	41.87
496.31	40.74
496.766	40.76
497.222	40.7
497.679	41.16
498.135	40.66
498.591	43.79
499.048	40.52
499.504	40.84
499.96	40.41
500.416	41.71
500.872	40.86
501.329	41.76
501.785	42.5
502.241	40.3
502.697	38.66
503.153	43.3
503.609	41.83
504.065	43.91
504.521	40.33
504.977	41.27
505.432	42.15
505.888	41.01
506.344	41.98
506.8	41.29
507.256	43.94
507.711	42.32
508.167	42.44
508.623	43.6
509.078	41.64
509.534	40.31
509.99	41.52
510.445	41.68
510.901	40.45
511.356	39.13
511.812	40.28
512.267	41.44
512.722	42.66
513.178	42.6
513.633	41.63
514.089	41.35
514.544	44.8
514.999	40.43
515.454	42.79
515.91	43.03
516.365	40.4
516.82	41.96
517.275	42.48
517.73	41.03
518.185	42.82
518.64	42.71
519.095	41.29
519.55	42.67
520.005	42.13
520.46	42.82
520.915	41.32
521.37	43.43
521.825	43.06
522.28	43.14
522.734	44.69
523.189	41.88
523.644	42.66
524.099	42.43
524.553	43.11
525.008	41.36
525.462	42.83
525.917	43.67
526.372	43.24
526.826	44.04
527.281	43.47
527.735	42.53
528.19	43.7
528.644	43.09
529.098	41.63
529.553	41.41
530.007	43.13
530.461	42.67
530.916	44.53
531.37	44.75
531.824	44.06
532.278	42.4
532.732	45.48
533.186	42.82
533.641	42.48
534.095	43.23
534.549	41.86
535.003	44.57
535.457	43.81
535.911	44.08
536.365	42.22
536.818	45.38
537.272	43.27
537.726	42.47
538.18	40.62
538.634	43.1
539.087	44.73
539.541	42.9
539.995	42.21
540.449	44.39
540.902	44.69
541.356	43.55
541.809	41.91
542.263	42.13
542.716	44
543.17	42.25
543.623	41.83
544.077	42.73
544.53	45.58
544.984	44.97
545.437	44.49
545.89	42.24
546.344	44.07
546.797	43.97
547.25	43.55
547.703	43.4
548.157	46.52
548.61	42.28
549.063	43.96
549.516	44.95
549.969	43.55
550.422	43.97
550.875	44.76
551.328	42.61
551.781	43.65
552.234	45.03
552.687	43.79
553.14	43.43
553.592	44.51
554.045	44.99
554.498	43.86
554.951	43.02
555.404	44.81
555.856	45.03
556.309	44.99
556.762	44.45
557.214	45.78
557.667	45
558.119	44.87
558.572	44.89
559.024	44.65
559.477	43.91
559.929	44.88
560.382	43.32
560.834	44.64
561.286	44.25
561.739	43.75
562.191	45.18
562.643	45.72
563.095	46.6
563.548	45.29
564	44.72
564.452	43.93
564.904	44.67
565.356	43.5
565.808	44.92
566.26	44.32
566.712	44.62
567.164	44.22
567.616	44.43
568.068	42.73
568.52	45.07
568.972	43.95
569.424	44.95
569.876	47.48
570.327	44.84
570.779	45.54
571.231	44.94
571.682	43.5
572.134	45.51
572.586	44.92
573.037	46.15
573.489	44.78
573.941	46.9
574.392	44.13
574.844	44.04
575.295	44.34
575.746	45.15
576.198	44.52
576.649	45.79
577.101	46.09
577.552	45.24
578.003	44.64
578.454	46.2
578.906	46.55
579.357	45.78
579.808	47.16
580.259	45.56
580.71	45.22
581.161	46.29
581.612	44.32
582.064	43.61
582.515	45.79
582.965	45.8
583.416	45.05
583.867	45.04
584.318	44.37
584.769	46.79
585.22	45.11
585.671	45.22
586.122	45.78
586.572	45.07
587.023	44.66
587.474	45.62
587.924	45.82
588.375	46.11
588.826	45.81
589.276	46.47
589.727	45.89
590.177	47.08
590.628	44.63
591.078	44.08
591.529	46.1
591.979	44.82
592.429	45.87
592.88	45.24
593.33	45.64
593.78	44.25
594.231	46.48
594.681	46.92
595.131	44.47
595.581	46.01
596.031	45.36
596.481	44.94
596.932	45.39
597.382	46.58
597.832	46.81
598.282	45.35
598.732	44.27
599.182	45.5
599.632	45.87
600.081	45.99
600.531	46.33
600.981	44.63
601.431	47.18
601.881	45.5
602.33	45.95
602.78	44.83
603.23	45.53
603.679	47.04
604.129	45.57
604.579	45.94
605.028	45.51
605.478	45.85
605.927	44.18
606.377	46.07
606.826	46.66
607.276	44.24
607.725	45.83
608.175	44.83
608.624	44.87
609.073	46
609.522	45.91
609.972	47.22
610.421	45.66
610.87	45.52
611.319	46.69
611.768	46.16
612.218	47.88
612.667	46.24
613.116	45.62
613.565	46.7
614.014	43.73
614.463	44.44
614.912	46.14
615.361	45
615.81	46.15
616.258	46.35
616.707	44.74
617.156	45.94
617.605	46.08
618.054	46.33
618.502	46.98
618.951	45.86
619.4	45.8
619.848	45.49
620.297	45.83
620.745	46.31
621.194	45.86
621.642	45.38
622.091	46.53
622.539	47.1
622.988	45.12
623.436	46.8
623.885	45.78
624.333	45.69
624.781	46.62
625.23	44.92
625.678	45.82
626.126	45.63
626.574	44.85
627.022	46.52
627.471	46.14
627.919	47.07
628.367	45.9
628.815	45.39
629.263	46.26
629.711	46.12
630.159	46.09
630.607	46.39
631.055	45.44
631.503	46.51
631.95	47.38
632.398	45.5
632.846	46.06
633.294	46.18
633.742	46.21
634.189	45.53
634.637	46.07
635.085	46.02
635.532	46
635.98	47.13
636.427	46.29
636.875	46.88
637.323	45.78
637.77	46.43
638.217	45.77
638.665	45.69
639.112	45.99
639.56	45.71
640.007	44.83
640.454	46.48
640.902	46.33
641.349	46.55
641.796	45.12
642.243	46.12
642.69	46.11
643.138	46.8
643.585	45.53
644.032	46.52
644.479	46.09
644.926	46.59
645.373	46.33
645.82	45.84
646.267	46.26
646.714	46.64
647.161	46.32
647.607	46.19
648.054	45.93
648.501	45.1
648.948	46.47
649.395	46.22
649.841	46.31
650.288	47.04
650.735	45.74
651.181	45.68
651.628	46.5
652.075	46.97
652.521	46.29
652.968	45.22
653.414	45.99
653.861	45.89
654.307	45.64
654.753	46.61
655.2	47.13
655.646	46.16
656.092	47.24
656.539	46.39
656.985	46.88
657.431	45.98
657.877	46.7
658.324	45.37
658.77	45.57
659.216	46.2
659.662	46.38
660.108	45.15
660.554	46.66
661	46.18
661.446	46.02
661.892	46.03
662.338	45.16
662.784	45.93
663.23	45.85
663.675	45.82
664.121	46.13
664.567	46.43
665.013	45.89
665.458	45.39
665.904	46.03
666.35	45.11
666.795	46.26
667.241	45.62
667.687	46.47
668.132	45.88
668.578	46.69
669.023	46.21
669.469	45.64
669.914	46.69
670.359	46.38
670.805	45.77
671.25	46.71
671.695	45.98
672.141	46.42
672.586	47.05
673.031	45.67
673.476	45.76
673.922	45.84
674.367	45.77
674.812	46.09
675.257	46.2
675.702	46.79
676.147	45.29
676.592	45.14
677.037	46.17
677.482	45.95
677.927	46.17
678.372	46.53
678.817	46.78
679.261	46.02
679.706	45.99
680.151	45.93
680.596	46.24
681.04	46.49
681.485	46.77
681.93	44.84
682.374	46.49
682.819	46.61
683.264	46.69
683.708	46.2
684.153	46.52
684.597	45.77
685.042	45.81
685.486	45.5
685.93	45.98
686.375	46.05
686.819	47.5
687.263	45.76
687.708	46.14
688.152	46.15
688.596	45.83
689.04	46.03
689.485	47.3
689.929	46.57
690.373	46.14
690.817	46.57
691.261	46.84
691.705	45.5
692.149	46.14
692.593	46.66
693.037	46.19
693.481	46.5
693.925	46.38
694.369	47.76
694.812	46.73
695.256	46.64
695.7	46.28
696.144	45.97
696.587	46.31
697.031	45.93
697.475	46.46
697.918	45.99
698.362	46.41
698.806	46.09
699.249	46.91
699.693	46.66
700.136	46.58
700.58	46.01
701.023	46.03
701.466	46.15
701.91	46
702.353	45.94
702.796	46.88
703.24	46.43
703.683	46.66
704.126	46.78
704.569	46.93
705.013	46.19
705.456	45.36
705.899	46.81
706.342	46.06
706.785	46.49
707.228	46.99
707.671	46.93
708.114	46.99
708.557	46.34
709	46.96
709.443	45.63
709.886	47.34
710.328	46.39
710.771	45.45
711.214	47.88
711.657	46.04
712.099	46.7
712.542	46.72
712.985	46.59
713.427	46.45
713.87	46.72
714.313	46.6
714.755	45.85
715.198	45.58
715.64	44.94
716.083	46.47
716.525	45.72
716.967	46.84
717.41	46.71
717.852	46.09
718.295	45.93
718.737	47.12
719.179	46.39
719.621	46.09
720.063	46.73
720.506	45.87
720.948	47.63
721.39	46.18
721.832	47.52
722.274	46.74
722.716	46.6
723.158	46.07
723.6	46.01
724.042	46.32
724.484	46.21
724.926	46.68
725.368	46.32
725.81	47.03
726.251	46.54
726.693	45.91
727.135	45.98
727.577	47.02
728.018	46.8
728.46	46.14
728.902	46.04
729.343	46.01
729.785	46.58
730.226	47.23
730.668	46.11
731.109	46.36
731.551	46.82
731.992	47.28
732.434	47.24
732.875	45.62
733.316	46.28
733.758	45.97
734.199	47.33
734.64	45.35
735.081	46.68
735.523	46.65
735.964	46.24
736.405	46.3
736.846	47.07
737.287	45.84
737.728	46.19
738.169	46.9
738.61	45.58
739.051	45.7
739.492	46.37
739.933	46.58
740.374	46.09
740.815	47.1
741.256	46.87
741.696	46.73
742.137	45.97
742.578	46.05
743.019	46.78
743.459	47.43
743.9	47.05
744.341	46.19
744.781	46.88
745.222	45.59
745.662	46.29
746.103	46.48
746.543	46.22
746.984	46.69
747.424	46.34
747.865	46.03
748.305	47.75
748.745	46.92
749.186	46.36
749.626	47.19
750.066	46.83
750.506	46.65
750.947	46.52
751.387	46.15
751.827	46.09
752.267	46.67
752.707	46.26
753.147	46.77
753.587	46.08
754.027	45.75
754.467	46.1
754.907	46.9
755.347	46.87
755.787	45.89
756.227	46.48
756.667	45.83
757.107	46.91
757.546	46.22
757.986	46.56
758.426	46.14
758.865	46.22
759.305	46.36
759.745	46.18
760.184	46.24
760.624	45.83
761.063	46.66
761.503	46.06
761.943	46.21
762.382	47.14
762.821	46.51
763.261	46.98
763.7	46
764.14	47.05
764.579	45.71
765.018	45.74
765.457	47.32
765.897	45.44
766.336	46.65
766.775	45.19
767.214	46.22
767.653	46.87
768.092	46.12
768.531	46.88
768.97	46.56
769.409	45.51
769.848	45.77
770.287	45.52
770.726	45.96
771.165	46.1
771.604	46.97
772.043	46.91
772.482	47.21
772.92	46.54
773.359	46.34
773.798	46.25
774.237	45.74
774.675	46.59
775.114	46.11
775.553	46.44
775.991	46.55
776.43	46.58
776.868	46.12
777.307	46.44
777.745	47.3
778.184	46.52
778.622	46.26
779.06	46.43
779.499	46.52
779.937	45.96
780.375	46.54
780.814	46.37
781.252	46.84
781.69	45.79
782.128	46.12
782.566	46.39
783.004	45.83
783.443	46.34
783.881	45.8
784.319	46.41
784.757	45.67
785.195	45.71
785.633	46.21
786.071	45.97
786.508	45.8
786.946	46.57
787.384	45.65
787.822	47.23
788.26	46.31
788.697	46.54
789.135	46.04
789.573	46.29
790.011	46.42
790.448	46.04
790.886	46.26
791.323	46.69
791.761	46.28
792.198	46.33
792.636	45.91
793.073	46.24
793.511	45.78
793.948	45.47
794.386	45.85
794.823	45.9
795.26	45.89
795.698	46.14
796.135	46.04
796.572	46.1
797.009	45.9
797.446	46.33
797.884	46.45
798.321	45.78
798.758	46.46
799.195	46.11
799.632	45.55
800.069	46.24
800.506	45.94
800.943	46.17
801.38	46
801.817	46.94
802.254	45.92
802.69	45.64
803.127	46.78
803.564	45.81
804.001	45.83
804.438	45.13
804.874	46.16
805.311	46.16
805.748	46.15
806.184	44.98
806.621	45.49
807.057	45.65
807.494	45.7
807.93	45.57
808.367	45.36
808.803	46.08
809.24	46.01
809.676	46.39
810.112	45.67
810.549	45.48
810.985	45.82
811.421	46.36
811.857	45.58
812.294	45.54
812.73	45.4
813.166	45.26
813.602	45.99
814.038	45.63
814.474	46.18
814.91	46.1
815.346	45.99
815.782	45.75
816.218	45.86
816.654	45.86
817.09	45.96
817.526	45.72
817.962	45.94
818.398	45.86
818.833	45.36
819.269	46.05
819.705	46
820.141	45.43
820.576	46.1
821.012	46.05
821.447	44.91
821.883	46.35
822.319	45.89
822.754	46.23
823.19	45.64
823.625	46.55
824.061	45.69
824.496	46.18
824.931	45.55
825.367	45.88
825.802	45.52
826.237	45.67
826.673	45.56
827.108	45.42
827.543	45.35
827.978	46.05
828.413	46.14
828.849	45.4
829.284	46.13
829.719	45.58
830.154	45.83
830.589	45.29
831.024	45.89
831.459	45.55
831.894	45.73
832.329	45.7
832.763	45.98
833.198	45.02
833.633	45.36
834.068	45.5
834.503	45.76
834.937	46
835.372	46.05
835.807	45.02
836.241	45.14
836.676	45.94
837.111	45.4
837.545	45.44
837.98	44.77
838.414	45.64
838.849	45.29
839.283	46.12
839.717	44.88
840.152	45.62
840.586	46.06
841.021	45.25
841.455	45.14
841.889	45.82
842.323	45.11
842.758	45.64
843.192	45.33
843.626	45.6
844.06	44.95
844.494	45
844.928	45.24
845.362	45.67
845.796	45.64
846.23	44.78
846.664	45.89
847.098	45.42
847.532	45.02
847.966	45.81
848.4	45.13
848.834	45.39
849.267	45.11
849.701	45.11
850.135	45.08
850.569	45.32
851.002	45.1
851.436	45.51
851.87	45.57
852.303	45.53
852.737	45.4
853.17	45.25
853.604	45.36
854.037	44.55
854.471	45.16
854.904	45.29
855.337	45.57
855.771	45.29
856.204	46.17
856.637	45.37
857.071	45.84
857.504	45.25
857.937	45.66
858.37	45.46
858.804	44.7
859.237	45.01
859.67	45.76
860.103	45.26
860.536	44.97
860.969	45.11
861.402	45.51
861.835	44.87
862.268	45.15
862.701	45.14
863.134	44.97
863.566	46.07
863.999	44.5
864.432	45.33
864.865	45.28
865.298	45.15
865.73	45.12
866.163	44.63
866.596	45.26
867.028	45.19
867.461	45.53
867.893	45.34
868.326	45.18
868.758	45.45
869.191	44.97
869.623	44.98
870.056	44.78
870.488	45.43
870.92	45.36
871.353	45.15
871.785	44.93
872.217	45.08
872.65	45.69
873.082	45.16
873.514	45.23
873.946	44.83
874.378	45.7
874.81	46.01
875.243	44.98
875.675	44.73
876.107	44.73
876.539	44.96
876.971	44.47
877.403	44.92
877.834	45.01
878.266	44.85
878.698	45.01
879.13	45.14
879.562	44.8
879.994	44.91
880.425	45.39
880.857	45.22
881.289	45.42
881.72	44.69
882.152	45.22
882.584	45.19
883.015	44.49
883.447	45.36
883.878	43.96
884.31	44.96
884.741	44.6
885.173	45.01
885.604	45.62
886.035	44.56
886.467	45.06
886.898	44.54
887.329	44.63
887.76	45.09
888.192	45.01
888.623	45.29
889.054	44.8
889.485	44.65
889.916	44.94
890.347	44.53
890.778	44.78
891.209	44.03
891.64	44.22
892.071	44.24
892.502	44.61
892.933	45.2
893.364	45.1
893.795	44.79
894.226	44.71
894.657	45.24
895.087	44.4
895.518	44.94
895.949	44.5
896.38	44.38
896.81	45.23
897.241	44.72
897.671	44.44
898.102	44.82
898.533	44.05
898.963	44.04
899.394	44.64
899.824	44.12
900.254	44.54
900.685	44.52
901.115	44.72
901.546	44.63
901.976	44.85
902.406	44.74
902.836	44.46
903.267	44.17
903.697	44.37
904.127	44.11
904.557	44.68
904.987	44.89
905.417	43.71
905.847	44.82
906.277	44.17
906.707	44.48
907.137	44.02
907.567	45.22
907.997	44.53
908.427	44.31
908.857	43.91
909.287	43.78
909.717	43.41
910.146	44.08
910.576	44.69
911.006	44.36
911.436	44.71
911.865	44.73
912.295	44.41
912.724	44.36
913.154	44.17
913.584	44.15
914.013	44.25
914.443	44.36
914.872	44.12
915.302	43.95
915.731	44.22
916.16	43.66
916.59	43.66
917.019	43.95
917.448	44.26
917.878	44.32
918.307	44.12
918.736	43.79
919.165	44.19
919.594	43.81
920.023	44.63
920.452	43.92
920.882	43.83
921.311	44.21
921.74	44.08
922.169	44.14
922.597	44.11
923.026	43.88
923.455	43.81
923.884	43.78
924.313	44.07
924.742	43.72
925.171	44.13
925.599	44.08
926.028	43.95
926.457	44.32
926.885	43.61
927.314	43.25
927.743	44
928.171	43.79
928.6	44.05
929.028	44.09
929.457	43.92
929.885	43.89
930.314	43.45
930.742	43.68
931.17	43.47
931.599	43.8
932.027	43.77
932.455	43.84
932.884	43.88
933.312	43.67
933.74	44.37
934.168	44.14
934.596	43.83
935.025	44.09
935.453	43.71
935.881	43.63
936.309	43.76
936.737	43.65
937.165	43.31
937.593	43.79
938.021	44.14
938.449	43.18
938.876	43.95
939.304	43.49
939.732	43.11
940.16	43.83
940.588	44.15
941.015	43.69
941.443	43.21
941.871	43.49
942.298	43.49
942.726	43.4
943.154	43.66
943.581	43.29
944.009	43.39
944.436	43.19
944.864	44.07
945.291	43.6
945.718	43.81
946.146	43.75
946.573	43.89
947.001	43.92
947.428	44.32
947.855	43.8
948.282	43.93
948.71	43.61
949.137	44.07
949.564	43.53
949.991	44.04
950.418	43.98
950.845	43.66
951.272	43.53
951.699	43.82
952.126	43.71
952.553	43.81
952.98	43.86
953.407	44.05
953.834	44.14
954.261	43.93
954.688	44.4
955.114	43.46
955.541	43.92
955.968	43.89
956.395	44.15
956.821	43.62
957.248	43.41
957.674	44.04
958.101	44.16
958.528	43.37
958.954	43.91
959.381	43.78
959.807	43.83
960.234	44.08
960.66	43.95
961.086	44.26
961.513	44.21
961.939	43.94
962.365	43.96
962.792	43.15
963.218	43.87
963.644	43.43
964.07	43.63
964.496	43.84
964.923	44.04
965.349	42.89
965.775	44.06
966.201	44.04
966.627	43.97
967.053	43.16
967.479	43.72
967.905	44.06
968.331	43.02
968.756	43.74
969.182	43.6
969.608	43.88
970.034	43.89
970.46	43.61
970.885	43.88
971.311	43.7
971.737	43.86
972.162	43.82
972.588	44.16
973.014	44.1
973.439	43.67
973.865	43.98
974.29	43.61
974.716	43.6
975.141	43.08
975.567	43.5
975.992	43.5
976.417	43.65
976.843	43.07
977.268	44.43
977.693	43.48
978.119	43.96
978.544	43.59
978.969	43.08
979.394	43.7
979.819	43.38
980.244	43.72
980.669	43.68
981.095	43.6
981.52	43.59
981.945	43.42
982.369	43.26
982.794	43.61
983.219	43.96
983.644	43.87
984.069	43.25
984.494	43.68
984.919	43.89
985.343	43.56
985.768	43.43
986.193	43.93
986.618	43.38
987.042	43.7
987.467	43.67
987.891	43.86
988.316	44.01
988.741	43.51
989.165	43.78
989.59	43.24
990.014	43.12
990.438	43.57
990.863	43.38
991.287	43.22
991.712	43.44
992.136	43.38
992.56	43.05
992.984	43.71
993.409	43.11
993.833	43.01
994.257	43.45
994.681	43.89
995.105	43.35
995.529	43.27
995.953	43.46
996.377	43.11
996.801	43.02
997.225	43.58
997.649	43.37
998.073	43.63
998.497	43.35
998.921	43.76
999.345	43.61
999.769	43.03
1000.192	43.15
1000.616	43.39
1001.04	42.94
1001.464	43.32
1001.887	43.22
1002.311	43.4
1002.734	43.18
1003.158	43.24
1003.582	43.68
1004.005	43.4
1004.429	43.27
1004.852	43.21
1005.275	43.46
1005.699	43.28
1006.122	42.91
1006.546	43.09
1006.969	43.56
1007.392	43.33
1007.815	43.19
1008.239	43.74
1008.662	43.02
1009.085	42.92
1009.508	43.11
1009.931	43.41
1010.354	43.59
1010.778	42.99
1011.201	43.12
1011.624	43.12
1012.047	42.71
1012.469	43.21
1012.892	42.86
1013.315	43.45
1013.738	43.28
1014.161	42.84
1014.584	42.72
1015.007	42.77
1015.429	43.09
1015.852	43.46
1016.275	42.93
1016.697	42.95
1017.12	42.96
1017.543	42.97
1017.965	43
1018.388	42.61
1018.81	43.37
1019.233	43.06
1019.655	43.17
1020.078	43.17
1020.5	42.91
1020.922	42.87
1021.345	42.74
1021.767	42.57
1022.189	42.45
1022.612	43.33
1023.034	42.85
1023.456	42.59
1023.878	42.79
1024.301	42.41
1024.723	43.02
1025.145	42.58
1025.567	42.51
1025.989	42.87
1026.411	42.92
1026.833	42.97
1027.255	42.77
1027.677	42.91
1028.099	42.7
1028.52	42.56
1028.942	42.29
1029.364	42.43
1029.786	42.34
1030.208	43.21
1030.629	42.77
1031.051	42.64
1031.473	42.8
1031.894	42.76
1032.316	41.72
1032.738	42.6
1033.159	42.47
1033.581	42.94
1034.002	42.9
1034.424	42.63
1034.845	42.71
1035.267	42.84
1035.688	43.22
1036.109	43.37
1036.531	42.16
1036.952	43
1037.373	42.27
1037.794	42.16
1038.216	42.15
1038.637	41.97
1039.058	42.66
1039.479	42.76
1039.9	42.33
1040.321	42.79
1040.742	41.79
1041.163	42.95
1041.584	42.34
1042.005	42.83
1042.426	42.3
1042.847	42.64
1043.268	42.1
1043.689	41.92
1044.11	42.29
1044.53	42.38
1044.951	42.22
1045.372	42.29
1045.793	42.54
1046.213	41.75
1046.634	41.93
1047.055	42.94
1047.475	43.01
1047.896	42.06
1048.316	42.51
1048.737	43.04
1049.157	42.85
1049.578	42.63
1049.998	42.39
1050.419	42.78
1050.839	41.92
1051.259	42.38
1051.68	42.26
1052.1	42.33
1052.52	41.78
1052.94	42.26
1053.361	42.78
1053.781	42.22
1054.201	41.99
1054.621	42.84
1055.041	42.55
1055.461	41.14
1055.881	42.37
1056.301	42.44
1056.721	41.87
1057.141	41.76
1057.561	41.88
1057.981	42.23
1058.401	42.2
1058.82	42.17
1059.24	42.2
1059.66	42.37
1060.08	42.54
1060.499	41.77
1060.919	42.28
1061.339	42.58
1061.758	42.7
1062.178	41.68
1062.598	42.02
1063.017	42.22
1063.437	42.26
1063.856	41.79
1064.276	42.7
1064.695	41.98
1065.114	42.72
1065.534	41.16
1065.953	41.65
1066.372	41.86
1066.792	41.47
1067.211	42
1067.63	41.8
1068.049	42.14
1068.469	42.23
1068.888	42.87
1069.307	41.08
1069.726	42.67
1070.145	41.49
1070.564	41.66
1070.983	41.89
1071.402	41.99
1071.821	42.61
1072.24	41.73
1072.659	41.45
1073.078	41.74
1073.496	41.48
1073.915	41.22
1074.334	42.43
1074.753	41.4
1075.171	42.11
1075.59	41.66
1076.009	41.81
1076.427	41.5
1076.846	41.83
1077.265	42.57
1077.683	41.42
1078.102	41.68
1078.52	41.08
1078.939	42.29
1079.357	42.78
1079.776	42.47
1080.194	42.04
1080.612	41.53
1081.031	39.93
1081.449	42.31
1081.867	41.18
1082.285	41.61
1082.704	42.29
1083.122	40.51
1083.54	42.7
1083.958	41.97
1084.376	40.89
1084.794	41.85
1085.212	41.2
1085.63	42.83
1086.048	41.61
1086.466	42.01
1086.884	41.63
1087.302	40.96
1087.72	40.89
1088.138	40.88
1088.555	40.6
1088.973	42.39
1089.391	42.52
1089.809	42.24
1090.226	39.4
1090.644	40.84
1091.062	42.57
1091.479	42.83
1091.897	41.61
1092.314	41.14
1092.732	42.33
1093.15	41.13
1093.567	42.53
1093.984	41.77
1094.402	42.29
1094.819	40.27
1095.237	40.49
1095.654	40.77
1096.071	42.32
1096.488	42.05
1096.906	43.08
1097.323	40.62
1097.74	40.15
1098.157	40.33
1098.574	43.42
1098.991	41.62
1099.409	39.56
1099.826	40.69
1100.243	42.4
1100.66	41.73
1101.077	43.18
1101.494	42.28
1101.91	42.84
1102.327	41.85
1102.744	39.67
1103.161	39.6
1103.578	41.64
1103.994	41.92
1104.411	41.62
1104.828	40.83
1105.245	40.27
1105.661	40.9
1106.078	39.54
1106.494	41.51
1106.911	41.72
1107.328	39.8
1107.744	41.48
1108.161	39.94
1108.577	39.11
1108.993	37.73
1109.41	40.78
1109.826	42.45
1110.242	42.09
1110.659	39.39
1111.075	41.19
1111.491	40.08
1111.908	41.35
1112.324	39.7
1112.74	40.88
1113.156	40.63
1113.572	41.34
1113.988	40.28
1114.404	39.87
1114.82	36.69
1115.236	42.09
1115.652	39.24
1116.068	41.53
1116.484	39.03
1116.9	42.57
1117.316	38.48
1117.732	-1.45
1118.147	11.11
1118.563	1166.67
1118.979	-122.22
