Data from JCR0020_SpectralonRef_Reflection_00001.txt Node
Date: Fri Jul 31 09:42:59 ACST 2020
User: Stacey Dix
Spectrometer: MAYP113282
Scans to average: 1
Trigger mode: 0
Integration Time (sec): 1.000000E-1
Electric dark correction enabled: true
Boxcar width: 0
XAxis mode: Wavelengths
Number of Pixels in Spectrum: 2068
>>>>>Begin Spectral Data<<<<<
198.791	133.33
199.266	311.11
199.74	111.11
200.215	-51.85
200.69	155.04
201.164	90.42
201.639	97.44
202.114	95.71
202.588	285.06
203.063	147.26
203.537	110.18
204.012	111.37
204.486	86.6
204.961	93.92
205.435	69.82
205.909	63.91
206.384	88.15
206.858	115.36
207.332	107.38
207.807	107.56
208.281	99.72
208.755	88.58
209.229	87.14
209.703	146.95
210.177	162.55
210.651	92.67
211.126	67.49
211.6	104.68
212.074	137.07
212.548	99.67
213.021	93.54
213.495	96.93
213.969	85.95
214.443	112.14
214.917	99.79
215.391	89.57
215.864	98.04
216.338	92.33
216.812	117.27
217.286	117.55
217.759	104.96
218.233	81.02
218.706	115.37
219.18	98
219.654	98.97
220.127	118
220.6	109.76
221.074	117.26
221.547	90.06
222.021	82.9
222.494	93.57
222.967	104.4
223.441	107.56
223.914	100.57
224.387	99.36
224.86	100.53
225.334	103.95
225.807	119.61
226.28	100.81
226.753	91.01
227.226	105.32
227.699	114.79
228.172	105.35
228.645	105.77
229.118	88.46
229.591	102.53
230.064	97.42
230.537	98.86
231.01	98.88
231.482	97.85
231.955	114.47
232.428	108.94
232.901	106.84
233.373	100.62
233.846	95.05
234.319	97.72
234.791	96.24
235.264	99.8
235.736	103.54
236.209	99.24
236.681	94.53
237.154	98.43
237.626	111.31
238.099	100.23
238.571	98.69
239.044	102
239.516	103.92
239.988	101.56
240.46	103.33
240.933	96.64
241.405	95.77
241.877	100.5
242.349	102.11
242.821	100.08
243.293	106.54
243.765	100.49
244.237	96.65
244.71	100.48
245.181	98.5
245.653	98.2
246.125	98.76
246.597	101.88
247.069	104.93
247.541	95.65
248.013	95.95
248.485	99.78
248.956	99.19
249.428	98.04
249.9	100.27
250.371	103.98
250.843	95.32
251.315	101.65
251.786	96.02
252.258	101.99
252.729	97.76
253.201	99.14
253.672	99.29
254.144	101.39
254.615	95.14
255.086	101.71
255.558	103.03
256.029	100.93
256.5	101.52
256.972	102.78
257.443	99.99
257.914	97.92
258.385	100.51
258.856	99.37
259.327	102.39
259.799	104.29
260.27	100.76
260.741	101.21
261.212	100.09
261.683	98.19
262.154	103.14
262.624	100.45
263.095	100.59
263.566	102.59
264.037	102.9
264.508	100.5
264.979	99.59
265.449	102.28
265.92	101.35
266.391	98.88
266.861	98.86
267.332	98.51
267.803	100.56
268.273	101.23
268.744	100.69
269.214	98.64
269.685	97.78
270.155	97.27
270.626	98.03
271.096	98.43
271.566	100.36
272.037	99.16
272.507	99.99
272.977	103.24
273.448	98.68
273.918	102.16
274.388	97.71
274.858	103.76
275.328	97.53
275.798	97.21
276.268	101.51
276.738	100.28
277.208	102.63
277.678	96.65
278.148	101.12
278.618	99.4
279.088	96.3
279.558	102.64
280.028	101.86
280.498	98.88
280.968	98.66
281.437	101.86
281.907	99.8
282.377	100.77
282.847	104.29
283.316	99.19
283.786	101.87
284.255	102.9
284.725	102.38
285.194	100.1
285.664	98.4
286.133	100.75
286.603	100.31
287.072	98.38
287.542	101.37
288.011	100.94
288.48	100.04
288.95	101.7
289.419	100.56
289.888	102.28
290.357	97.92
290.827	103.54
291.296	98.92
291.765	100.51
292.234	101.09
292.703	104.37
293.172	100.73
293.641	103.15
294.11	99.19
294.579	100.73
295.048	99.3
295.517	101.7
295.986	98.34
296.455	96.06
296.923	100.37
297.392	102.73
297.861	98.77
298.33	98.35
298.798	100.96
299.267	100.05
299.736	99.99
300.204	100.11
300.673	97.56
301.141	99.18
301.61	98.71
302.079	105.51
302.547	99.99
303.015	94.13
303.484	99.82
303.952	101.08
304.421	98.68
304.889	99.48
305.357	99.14
305.825	100.17
306.294	100.89
306.762	99.11
307.23	98.66
307.698	100.05
308.166	99.51
308.634	98.09
309.103	98.72
309.571	104.61
310.039	99.87
310.507	99.93
310.975	100.05
311.442	97.93
311.91	98.08
312.378	99.05
312.846	99.71
313.314	100.77
313.782	98.36
314.249	97.14
314.717	100.93
315.185	96.63
315.652	101.28
316.12	98.89
316.588	97.67
317.055	97.29
317.523	101.76
317.99	101.62
318.458	98.33
318.925	101.96
319.393	103.89
319.86	99.82
320.328	101.73
320.795	100.7
321.262	101.01
321.73	98.8
322.197	102.82
322.664	99.68
323.131	96.71
323.598	101.63
324.066	100.05
324.533	99.31
325	99.57
325.467	100.36
325.934	102.09
326.401	98.22
326.868	99.75
327.335	101.32
327.802	103.3
328.269	99.05
328.735	101.79
329.202	99.37
329.669	100.96
330.136	100.34
330.603	102.22
331.069	98.71
331.536	99.1
332.003	100.55
332.469	99.33
332.936	99.94
333.402	99.61
333.869	103
334.336	97.81
334.802	101.28
335.268	102.25
335.735	98.71
336.201	98.29
336.668	100.6
337.134	104.18
337.6	96.88
338.067	102.18
338.533	95.96
338.999	99.75
339.465	102.11
339.931	96.71
340.398	98.22
340.864	99.58
341.33	99.03
341.796	99.82
342.262	104.26
342.728	98.46
343.194	96.36
343.66	98.39
344.126	102.32
344.592	101.67
345.057	97.69
345.523	99.69
345.989	100.46
346.455	95.61
346.921	100.72
347.386	98.72
347.852	100.11
348.318	99.31
348.783	101.59
349.249	99.13
349.714	100.88
350.18	103.53
350.645	102.59
351.111	100.37
351.576	98.74
352.042	100.36
352.507	98.97
352.973	102.79
353.438	100.43
353.903	103.16
354.369	100.94
354.834	100.37
355.299	100.24
355.764	102.49
356.229	98.92
356.695	103.95
357.16	98.86
357.625	102.35
358.09	100.62
358.555	99.8
359.02	99.29
359.485	101.37
359.95	101.64
360.415	99.86
360.879	97.99
361.344	98.95
361.809	100.19
362.274	95.31
362.739	101.23
363.203	105.51
363.668	100.81
364.133	97.64
364.597	100.8
365.062	98.17
365.527	100.6
365.991	101.04
366.456	100.12
366.92	95.6
367.385	102.06
367.849	101.88
368.314	101.37
368.778	97.93
369.242	102.08
369.707	99.71
370.171	98.43
370.635	98.33
371.1	99.15
371.564	99.71
372.028	99.78
372.492	99.22
372.956	96.09
373.42	103.82
373.884	100.96
374.348	101.34
374.812	101.76
375.276	97.03
375.74	101.9
376.204	100.81
376.668	100.5
377.132	100.49
377.596	99.41
378.06	100.73
378.524	103.24
378.987	97.74
379.451	100.59
379.915	98.21
380.378	98.41
380.842	101.48
381.306	95.94
381.769	100.18
382.233	101.79
382.696	101.55
383.16	101.89
383.623	102.27
384.087	95.48
384.55	99.86
385.014	98.26
385.477	102.19
385.94	101.26
386.404	100.97
386.867	103.9
387.33	98.87
387.793	97.69
388.256	103.38
388.72	97.62
389.183	101.27
389.646	102.65
390.109	100.11
390.572	101.03
391.035	101.28
391.498	98.34
391.961	99.33
392.424	101.6
392.887	100.79
393.35	99.94
393.812	103.72
394.275	98.97
394.738	97.3
395.201	101.64
395.664	99.88
396.126	101.14
396.589	99.5
397.052	103.93
397.514	101.9
397.977	97.93
398.439	98.78
398.902	99.94
399.364	99.67
399.827	100.82
400.289	100.05
400.752	100.82
401.214	103.1
401.676	97.42
402.139	98.2
402.601	102.56
403.063	100.43
403.525	99.42
403.988	100.3
404.45	98.46
404.912	100.67
405.374	99.12
405.836	99.18
406.298	99.12
406.76	101
407.222	101.47
407.684	99.6
408.146	101.21
408.608	97.2
409.07	101.85
409.532	99.16
409.994	99.16
410.456	101.07
410.917	100.4
411.379	95.74
411.841	97.74
412.303	96.82
412.764	101.27
413.226	102.7
413.687	101.4
414.149	101.38
414.611	99.6
415.072	103.07
415.534	96.29
415.995	98.98
416.457	103.66
416.918	98.04
417.379	98.92
417.841	100.91
418.302	97.93
418.763	96.54
419.225	100.78
419.686	100.62
420.147	103.22
420.608	99.88
421.069	100.88
421.53	100.26
421.991	97.55
422.453	100.64
422.914	99.72
423.375	98.51
423.836	97.49
424.297	100.86
424.757	94.93
425.218	100.8
425.679	96.91
426.14	100.91
426.601	98.71
427.062	99.91
427.522	97.82
427.983	97.12
428.444	97.96
428.904	102.55
429.365	97.74
429.826	100.08
430.286	98.63
430.747	101.38
431.207	95.26
431.668	103.83
432.128	98.8
432.589	99.87
433.049	101.47
433.509	97.04
433.97	101.12
434.43	100.3
434.89	102.67
435.351	98.21
435.811	103.36
436.271	102.31
436.731	102.65
437.191	97.78
437.651	96.78
438.112	97.06
438.572	105.09
439.032	100.08
439.492	100.94
439.952	106.24
440.412	97.81
440.871	97.65
441.331	99.69
441.791	98.61
442.251	104.68
442.711	101.6
443.171	98.75
443.63	99.41
444.09	99.41
444.55	95.51
445.009	100.55
445.469	97.44
445.929	103.89
446.388	100.07
446.848	98.9
447.307	104.6
447.767	99.11
448.226	100.34
448.686	104.13
449.145	105.16
449.604	99.12
450.064	101.73
450.523	96.95
450.982	103.23
451.442	99.64
451.901	96.11
452.36	103.15
452.819	100.16
453.278	101.12
453.737	103.11
454.197	99.37
454.656	100.77
455.115	102.97
455.574	95.74
456.033	100.16
456.492	100.63
456.95	101.01
457.409	99.33
457.868	100.36
458.327	102.37
458.786	97.02
459.245	101.23
459.703	101.7
460.162	107.2
460.621	100.56
461.079	99.89
461.538	102.67
461.997	99.39
462.455	103.99
462.914	101.09
463.372	99.98
463.831	98
464.289	96.34
464.748	104.72
465.206	100.49
465.664	99.15
466.123	98.57
466.581	96.97
467.039	99.67
467.497	103.6
467.956	98.09
468.414	99.36
468.872	97.61
469.33	96.27
469.788	105.15
470.246	102.48
470.704	96.92
471.162	99.01
471.62	96.34
472.078	102.07
472.536	104.01
472.994	97.43
473.452	100.2
473.91	103.69
474.368	98.26
474.826	99.32
475.283	102.38
475.741	103.41
476.199	101.63
476.656	99.08
477.114	104.09
477.572	100.43
478.029	98.3
478.487	104.69
478.944	97.23
479.402	101.33
479.859	95.45
480.317	99.98
480.774	100.78
481.232	99.54
481.689	98.42
482.146	97.06
482.604	100.75
483.061	97.64
483.518	102.38
483.975	95.95
484.433	99.53
484.89	98.12
485.347	98.98
485.804	98.09
486.261	97.44
486.718	97.92
487.175	104.71
487.632	96.32
488.089	99
488.546	99.76
489.003	101.02
489.46	101.59
489.917	102.6
490.373	104.76
490.83	102.34
491.287	104.1
491.744	97.26
492.2	96.96
492.657	100.21
493.114	103.6
493.57	98.53
494.027	100.54
494.484	98.86
494.94	99.42
495.397	101.24
495.853	100.75
496.31	106
496.766	100.95
497.222	97.45
497.679	102.59
498.135	98.54
498.591	103.62
499.048	104.07
499.504	104.37
499.96	100.84
500.416	99.55
500.872	100.3
501.329	103.62
501.785	102.95
502.241	100.19
502.697	100.82
503.153	104.19
503.609	103.42
504.065	101.35
504.521	101
504.977	101.47
505.432	101.92
505.888	100.88
506.344	99.71
506.8	97.62
507.256	100.26
507.711	101.72
508.167	102.74
508.623	101.15
509.078	100.25
509.534	100.51
509.99	98.44
510.445	101.2
510.901	98.21
511.356	102.64
511.812	102.17
512.267	103.51
512.722	97.29
513.178	98
513.633	104.34
514.089	100.22
514.544	101.62
514.999	104.19
515.454	100.54
515.91	101.47
516.365	99.28
516.82	103.93
517.275	98.18
517.73	97.66
518.185	96.88
518.64	101.2
519.095	102.6
519.55	97.67
520.005	99.69
520.46	100.43
520.915	97.75
521.37	99.84
521.825	102.82
522.28	98.88
522.734	99.91
523.189	99.39
523.644	98.65
524.099	102.59
524.553	98.48
525.008	102.89
525.462	100.76
525.917	96.57
526.372	104.6
526.826	100.99
527.281	95.39
527.735	97.62
528.19	98.98
528.644	100.39
529.098	103.5
529.553	102.25
530.007	99.9
530.461	102.62
530.916	99.05
531.37	96.87
531.824	98.62
532.278	100.63
532.732	105.69
533.186	98.17
533.641	97.47
534.095	98.12
534.549	97.9
535.003	99.25
535.457	104.48
535.911	100.97
536.365	100.84
536.818	100.32
537.272	106.05
537.726	98.49
538.18	96.89
538.634	93.93
539.087	96.94
539.541	101.17
539.995	98.59
540.449	98.2
540.902	101.55
541.356	98.88
541.809	97.09
542.263	100.94
542.716	102.73
543.17	94.24
543.623	107.41
544.077	99.82
544.53	99.23
544.984	97.41
545.437	104.01
545.89	96.78
546.344	97.39
546.797	101.55
547.25	101.91
547.703	94.97
548.157	103.35
548.61	101.98
549.063	100.07
549.516	102.04
549.969	99.26
550.422	100.06
550.875	97.58
551.328	96.64
551.781	98.71
552.234	96.12
552.687	100.58
553.14	97.59
553.592	104.82
554.045	102.79
554.498	101.08
554.951	99.14
555.404	102.71
555.856	101.92
556.309	99.24
556.762	100.06
557.214	101.23
557.667	101.06
558.119	100.33
558.572	100.5
559.024	100.12
559.477	100.62
559.929	104.84
560.382	99.8
560.834	101.82
561.286	98.63
561.739	100.24
562.191	95.55
562.643	99.09
563.095	101.41
563.548	98.48
564	101.06
564.452	95.65
564.904	101.83
565.356	100.1
565.808	99.54
566.26	100.38
566.712	98.96
567.164	102.77
567.616	98.31
568.068	102.74
568.52	97.96
568.972	98.65
569.424	101.13
569.876	96.99
570.327	98.85
570.779	98.16
571.231	102.45
571.682	99.94
572.134	101.84
572.586	101.89
573.037	103.7
573.489	102.63
573.941	100.46
574.392	102.17
574.844	99.99
575.295	100.25
575.746	100.91
576.198	99.79
576.649	98.97
577.101	97.32
577.552	100.5
578.003	103.62
578.454	99.29
578.906	100.92
579.357	99.45
579.808	98.66
580.259	98.7
580.71	103.71
581.161	104.71
581.612	98.91
582.064	100.39
582.515	98.73
582.965	99.05
583.416	98.74
583.867	100.95
584.318	99.39
584.769	101.75
585.22	102.32
585.671	102.06
586.122	101.57
586.572	99.35
587.023	101.82
587.474	98.35
587.924	99.99
588.375	98.4
588.826	98.75
589.276	101.05
589.727	102.75
590.177	99.08
590.628	101.43
591.078	100.51
591.529	103.18
591.979	100.4
592.429	98.34
592.88	101.41
593.33	98.42
593.78	99.74
594.231	100.5
594.681	102.03
595.131	101.29
595.581	98.34
596.031	103.05
596.481	98.13
596.932	98.64
597.382	100.14
597.832	99.04
598.282	98.85
598.732	100.54
599.182	100.68
599.632	98.25
600.081	99.99
600.531	103.11
600.981	99.65
601.431	98.31
601.881	103.03
602.33	100.19
602.78	103.61
603.23	99.28
603.679	99.75
604.129	100.23
604.579	104.7
605.028	100.37
605.478	98.03
605.927	100.89
606.377	99.8
606.826	101.2
607.276	101.17
607.725	98.3
608.175	98.66
608.624	98.86
609.073	99.72
609.522	99.68
609.972	100.85
610.421	95.84
610.87	101.61
611.319	100.38
611.768	99.38
612.218	101.05
612.667	97.69
613.116	98.48
613.565	98.64
614.014	100.42
614.463	102.41
614.912	103.09
615.361	98.58
615.81	102.23
616.258	102.31
616.707	96.91
617.156	99.18
617.605	98.52
618.054	96.8
618.502	101.92
618.951	102.96
619.4	98.43
619.848	100.86
620.297	101.53
620.745	101.24
621.194	101.28
621.642	100.45
622.091	99.5
622.539	101.72
622.988	96.81
623.436	101.59
623.885	99.96
624.333	98.56
624.781	100.61
625.23	102.55
625.678	101.15
626.126	98.16
626.574	99.96
627.022	99.25
627.471	100.76
627.919	100.52
628.367	100.62
628.815	103.81
629.263	99.76
629.711	99.21
630.159	100.16
630.607	97.78
631.055	101.58
631.503	105.1
631.95	99.89
632.398	98.53
632.846	101.63
633.294	97.84
633.742	102.7
634.189	99.99
634.637	98.08
635.085	100.97
635.532	99.13
635.98	98.94
636.427	97.76
636.875	100.35
637.323	97.81
637.77	101.85
638.217	99.74
638.665	98.44
639.112	100.69
639.56	101.16
640.007	98.31
640.454	100.06
640.902	100.21
641.349	100.68
641.796	98.69
642.243	100.68
642.69	99.84
643.138	101.13
643.585	100.85
644.032	100.92
644.479	101.12
644.926	96.34
645.373	99.63
645.82	97.9
646.267	99.26
646.714	98.68
647.161	99.36
647.607	98.8
648.054	100.87
648.501	101.86
648.948	100.57
649.395	102.01
649.841	99.31
650.288	102.73
650.735	100.59
651.181	99.9
651.628	99.73
652.075	100.62
652.521	99.73
652.968	101.67
653.414	101.51
653.861	99.79
654.307	102.76
654.753	97.12
655.2	102.87
655.646	99.64
656.092	101.4
656.539	101.78
656.985	100.22
657.431	100
657.877	100.46
658.324	99.51
658.77	102.43
659.216	99.01
659.662	97.59
660.108	102.7
660.554	101.96
661	98.84
661.446	99.94
661.892	101.71
662.338	99.8
662.784	100.5
663.23	101.76
663.675	101.19
664.121	100.33
664.567	97
665.013	99.77
665.458	99.56
665.904	100.38
666.35	101.58
666.795	99.81
667.241	97.87
667.687	97.98
668.132	99.89
668.578	99.17
669.023	97.58
669.469	101.19
669.914	99.71
670.359	97.28
670.805	101.46
671.25	99.87
671.695	99.68
672.141	100.64
672.586	99.51
673.031	101.23
673.476	100.02
673.922	101.6
674.367	99.37
674.812	98.21
675.257	99.87
675.702	100.67
676.147	99.73
676.592	100.14
677.037	100.41
677.482	100.46
677.927	100.46
678.372	98.1
678.817	99.92
679.261	101.44
679.706	98.78
680.151	99.64
680.596	99.03
681.04	99.01
681.485	100.88
681.93	101.46
682.374	98.32
682.819	101.72
683.264	100.62
683.708	100.53
684.153	100.18
684.597	98
685.042	99.36
685.486	99.57
685.93	99.3
686.375	98.49
686.819	97.65
687.263	99.53
687.708	100.73
688.152	100.79
688.596	99.25
689.04	100.3
689.485	99.91
689.929	98.99
690.373	100.52
690.817	99.87
691.261	99.7
691.705	97.72
692.149	103.43
692.593	100.44
693.037	98.65
693.481	100.29
693.925	100.49
694.369	99.71
694.812	99.23
695.256	99.46
695.7	100.08
696.144	100.74
696.587	99.07
697.031	98.55
697.475	101.46
697.918	98.34
698.362	96.34
698.806	100.71
699.249	98.78
699.693	100.74
700.136	101.07
700.58	99.48
701.023	99.98
701.466	101.4
701.91	100.76
702.353	98.56
702.796	99.44
703.24	98.7
703.683	99.49
704.126	101.45
704.569	98.25
705.013	99.86
705.456	97.88
705.899	99.51
706.342	98.71
706.785	100.7
707.228	101.79
707.671	98.29
708.114	99.88
708.557	101.33
709	102.37
709.443	99.37
709.886	100.17
710.328	99.53
710.771	99.59
711.214	99.15
711.657	98.52
712.099	99.55
712.542	99.22
712.985	99.98
713.427	98.96
713.87	99.76
714.313	101.2
714.755	102.22
715.198	100.12
715.64	98.36
716.083	99.33
716.525	99.74
716.967	98.26
717.41	99.8
717.852	100.38
718.295	101.89
718.737	98.4
719.179	100.42
719.621	100.04
720.063	99.98
720.506	99.83
720.948	100.16
721.39	99.64
721.832	100.66
722.274	100.08
722.716	101.07
723.158	100.48
723.6	99.81
724.042	98.98
724.484	101.69
724.926	100.83
725.368	101.02
725.81	99.09
726.251	100.58
726.693	99.89
727.135	98.16
727.577	100.57
728.018	97.48
728.46	101.51
728.902	101.39
729.343	99.55
729.785	100.21
730.226	100.85
730.668	102.21
731.109	100.78
731.551	100.21
731.992	101.13
732.434	100.84
732.875	98.35
733.316	100.29
733.758	102.91
734.199	100.64
734.64	101.11
735.081	98.24
735.523	99.36
735.964	99.38
736.405	101.69
736.846	100.87
737.287	100.44
737.728	99.78
738.169	101.42
738.61	97.75
739.051	99.2
739.492	98.98
739.933	99.91
740.374	99.1
740.815	98.89
741.256	99
741.696	99.74
742.137	100.68
742.578	98.68
743.019	99.68
743.459	100.93
743.9	98.73
744.341	100.29
744.781	98.18
745.222	100.6
745.662	100.38
746.103	99.89
746.543	101.39
746.984	97.72
747.424	100.59
747.865	101.87
748.305	100.87
748.745	99.06
749.186	99.4
749.626	102.22
750.066	98.65
750.506	100.18
750.947	98.27
751.387	99.54
751.827	99.26
752.267	100.88
752.707	100.04
753.147	102.52
753.587	102.61
754.027	99.37
754.467	99.45
754.907	99.74
755.347	99.16
755.787	100.54
756.227	99.86
756.667	100.2
757.107	99.72
757.546	100.71
757.986	99.61
758.426	100.17
758.865	99.9
759.305	99.37
759.745	100.97
760.184	99.82
760.624	100.66
761.063	99.5
761.503	100.13
761.943	101.3
762.382	99.32
762.821	100.78
763.261	98.56
763.7	100.77
764.14	99.92
764.579	98.82
765.018	99.64
765.457	99.29
765.897	100.35
766.336	100.86
766.775	101.11
767.214	99.16
767.653	102.35
768.092	99.68
768.531	99.94
768.97	98.94
769.409	99.17
769.848	100.12
770.287	99.85
770.726	98.97
771.165	99.78
771.604	100.12
772.043	100.5
772.482	98.76
772.92	102.3
773.359	99.28
773.798	102.68
774.237	97.65
774.675	98.88
775.114	99.88
775.553	98.75
775.991	100.07
776.43	100.9
776.868	100.24
777.307	98.64
777.745	100.9
778.184	100.17
778.622	99.47
779.06	98.79
779.499	100.9
779.937	97.11
780.375	99.28
780.814	102.19
781.252	99.52
781.69	99.26
782.128	101.87
782.566	99.12
783.004	99.4
783.443	99.77
783.881	99.95
784.319	98.29
784.757	100.57
785.195	100.94
785.633	97.91
786.071	99.92
786.508	98.5
786.946	100.23
787.384	100.04
787.822	100.26
788.26	100.11
788.697	101.97
789.135	98.76
789.573	100.42
790.011	99.81
790.448	98.17
790.886	99.71
791.323	100.91
791.761	100.78
792.198	100.03
792.636	99.53
793.073	100.69
793.511	100.3
793.948	99.94
794.386	100.22
794.823	100.41
795.26	100.15
795.698	102.66
796.135	100.43
796.572	99.57
797.009	98.82
797.446	101.16
797.884	100.76
798.321	99.77
798.758	101.05
799.195	101.25
799.632	100.31
800.069	99.61
800.506	99.41
800.943	100.17
801.38	98.85
801.817	100.34
802.254	98.93
802.69	98.82
803.127	98.83
803.564	101.2
804.001	97.95
804.438	98.69
804.874	99.21
805.311	99.78
805.748	100.15
806.184	102.02
806.621	99.46
807.057	100.87
807.494	99.59
807.93	99.08
808.367	100.79
808.803	100.37
809.24	99.85
809.676	102.45
810.112	99.8
810.549	98.9
810.985	100.33
811.421	100.34
811.857	98.41
812.294	99.85
812.73	99.14
813.166	100.89
813.602	98.34
814.038	99.17
814.474	99.26
814.91	100.44
815.346	98.9
815.782	100.27
816.218	101.41
816.654	99.63
817.09	101.36
817.526	101.26
817.962	100.15
818.398	99.99
818.833	99.62
819.269	100.63
819.705	98.99
820.141	99.59
820.576	101.42
821.012	101.24
821.447	99.23
821.883	99.28
822.319	100.29
822.754	99.57
823.19	101.7
823.625	100.1
824.061	99.63
824.496	100.74
824.931	98.91
825.367	101.44
825.802	99.31
826.237	99.39
826.673	100.25
827.108	99.9
827.543	101.46
827.978	100.49
828.413	99.73
828.849	102.98
829.284	99.48
829.719	100.41
830.154	100.63
830.589	101.98
831.024	99.76
831.459	99.99
831.894	100.19
832.329	100.47
832.763	101.68
833.198	100.36
833.633	100.27
834.068	99.65
834.503	98.81
834.937	100.41
835.372	100.17
835.807	99.1
836.241	101.13
836.676	99.46
837.111	99.99
837.545	99.24
837.98	100.61
838.414	99.98
838.849	99.52
839.283	99.16
839.717	99.5
840.152	101.39
840.586	100.16
841.021	99.01
841.455	100.96
841.889	100.43
842.323	100.87
842.758	98.1
843.192	98.48
843.626	100.59
844.06	99.88
844.494	100.4
844.928	100.86
845.362	100.15
845.796	101.1
846.23	99.75
846.664	100.6
847.098	98.63
847.532	99.63
847.966	99.11
848.4	100.73
848.834	100
849.267	98.29
849.701	100.63
850.135	99.66
850.569	99.57
851.002	99.43
851.436	98.77
851.87	97.76
852.303	99.79
852.737	100.97
853.17	99.27
853.604	100.86
854.037	100.05
854.471	100.06
854.904	99.93
855.337	100.91
855.771	99.4
856.204	100.17
856.637	100.57
857.071	100.58
857.504	99.74
857.937	98.72
858.37	99.72
858.804	100.8
859.237	100.6
859.67	100.48
860.103	101.42
860.536	99.02
860.969	100.01
861.402	99.11
861.835	99.99
862.268	100.19
862.701	100.14
863.134	100.13
863.566	98.91
863.999	100.14
864.432	99.01
864.865	99.94
865.298	100.13
865.73	100.29
866.163	98.72
866.596	99.65
867.028	98.63
867.461	98.8
867.893	99.65
868.326	99.45
868.758	99.35
869.191	101.49
869.623	100.35
870.056	100.84
870.488	99.29
870.92	100
871.353	100.77
871.785	99.74
872.217	99.65
872.65	99.89
873.082	100.57
873.514	99.33
873.946	98.73
874.378	100.38
874.81	100.84
875.243	99.61
875.675	100.27
876.107	99.7
876.539	100.96
876.971	99.41
877.403	100.93
877.834	98.63
878.266	99.74
878.698	97.99
879.13	100.22
879.562	98.78
879.994	99.41
880.425	100.25
880.857	99.89
881.289	99.94
881.72	101.88
882.152	100.79
882.584	100.62
883.015	101.12
883.447	99.12
883.878	99.86
884.31	100.04
884.741	99.47
885.173	100.3
885.604	98.57
886.035	99.61
886.467	100.12
886.898	100.94
887.329	99.88
887.76	99.16
888.192	101.73
888.623	100.31
889.054	99.41
889.485	100.26
889.916	98.69
890.347	99.76
890.778	101.44
891.209	99.13
891.64	101.49
892.071	100.34
892.502	100.86
892.933	99.64
893.364	99.82
893.795	100.32
894.226	100.01
894.657	100
895.087	99.45
895.518	100.16
895.949	100.46
896.38	99.56
896.81	98.97
897.241	98.91
897.671	100.17
898.102	98.45
898.533	99.2
898.963	99.08
899.394	100.8
899.824	100.78
900.254	100.4
900.685	100.55
901.115	99.26
901.546	99.89
901.976	99.2
902.406	98.91
902.836	99.67
903.267	100.64
903.697	99.99
904.127	100.69
904.557	100.36
904.987	100.11
905.417	100
905.847	99.96
906.277	101.22
906.707	99.02
907.137	100.33
907.567	100.4
907.997	100.01
908.427	99.27
908.857	99.49
909.287	101.15
909.717	99.28
910.146	99.61
910.576	100.34
911.006	100.37
911.436	99.43
911.865	101.08
912.295	99.66
912.724	100.85
913.154	100.57
913.584	99.17
914.013	99.24
914.443	99.99
914.872	98.98
915.302	100.21
915.731	99.8
916.16	100.03
916.59	100.44
917.019	101.16
917.448	100.24
917.878	99.98
918.307	100.46
918.736	100.5
919.165	100.53
919.594	99.83
920.023	99.19
920.452	100
920.882	101.52
921.311	100.12
921.74	100.29
922.169	99.55
922.597	99.07
923.026	100.77
923.455	99.2
923.884	100.33
924.313	100.15
924.742	101.52
925.171	99.82
925.599	101.29
926.028	98.71
926.457	100.25
926.885	99.6
927.314	99.64
927.743	100.99
928.171	100.57
928.6	99.62
929.028	100.07
929.457	102.01
929.885	99.88
930.314	100.14
930.742	100.45
931.17	101
931.599	100.33
932.027	100.13
932.455	100.77
932.884	100.26
933.312	100.09
933.74	100.09
934.168	100.79
934.596	99.39
935.025	100.83
935.453	100.93
935.881	98.37
936.309	100.93
936.737	100.25
937.165	100.44
937.593	99.55
938.021	99.71
938.449	100.34
938.876	99.19
939.304	100.79
939.732	98.48
940.16	100.18
940.588	99.76
941.015	101.32
941.443	100.28
941.871	99.95
942.298	100.42
942.726	99.71
943.154	98
943.581	99.26
944.009	100
944.436	100.6
944.864	100.48
945.291	98.24
945.718	99.81
946.146	102.15
946.573	98.86
947.001	100.85
947.428	99.67
947.855	100.54
948.282	100.87
948.71	99.92
949.137	100.8
949.564	98.93
949.991	99.86
950.418	100.54
950.845	100.62
951.272	100
951.699	97.89
952.126	98.98
952.553	98.99
952.98	99.98
953.407	99.55
953.834	100.77
954.261	100.24
954.688	99.17
955.114	99.37
955.541	99.13
955.968	98.87
956.395	100.13
956.821	100.24
957.248	100.93
957.674	99.94
958.101	99.88
958.528	99.62
958.954	99.71
959.381	99.3
959.807	99.63
960.234	100.08
960.66	100.82
961.086	99.85
961.513	98.5
961.939	99.97
962.365	99.73
962.792	100.54
963.218	99.76
963.644	100.31
964.07	100.11
964.496	100.22
964.923	99.42
965.349	99.78
965.775	99.53
966.201	99.56
966.627	99.85
967.053	99.78
967.479	99.85
967.905	99.93
968.331	99.04
968.756	100.72
969.182	100.71
969.608	99.84
970.034	100.48
970.46	99.87
970.885	100.16
971.311	100.05
971.737	99.11
972.162	100.42
972.588	100.17
973.014	99.66
973.439	99.49
973.865	99.55
974.29	100
974.716	100.98
975.141	99.22
975.567	100.92
975.992	99.02
976.417	101.44
976.843	99.32
977.268	99.86
977.693	101.22
978.119	100.17
978.544	99.1
978.969	100.21
979.394	99.53
979.819	101.18
980.244	99.85
980.669	100.09
981.095	98.86
981.52	99.68
981.945	100
982.369	99.03
982.794	100.21
983.219	99.29
983.644	100.46
984.069	100.27
984.494	99.6
984.919	99.63
985.343	99.46
985.768	99.12
986.193	100.72
986.618	101.13
987.042	99.59
987.467	100.65
987.891	101.6
988.316	100.44
988.741	101.03
989.165	100.24
989.59	100.62
990.014	99.72
990.438	101.3
990.863	99.44
991.287	100.13
991.712	100.45
992.136	100.19
992.56	99.78
992.984	100.03
993.409	100
993.833	99.66
994.257	99.44
994.681	98.75
995.105	99.88
995.529	100.18
995.953	99.93
996.377	100.48
996.801	100.56
997.225	98.98
997.649	101.19
998.073	99.58
998.497	99.96
998.921	99.95
999.345	99.41
999.769	99.6
1000.192	100.25
1000.616	100.69
1001.04	100.03
1001.464	100.18
1001.887	100.17
1002.311	100.5
1002.734	99.74
1003.158	100.35
1003.582	99.7
1004.005	99.06
1004.429	100
1004.852	99.97
1005.275	99.92
1005.699	99.84
1006.122	100.29
1006.546	99.74
1006.969	100.59
1007.392	100.42
1007.815	100.19
1008.239	99.71
1008.662	99.38
1009.085	100.12
1009.508	100.8
1009.931	99.83
1010.354	99.07
1010.778	100.91
1011.201	100.11
1011.624	100.45
1012.047	99.42
1012.469	99.36
1012.892	99.75
1013.315	101.58
1013.738	100.65
1014.161	101.4
1014.584	99.95
1015.007	100.82
1015.429	100.07
1015.852	100.49
1016.275	99.09
1016.697	100.53
1017.12	100.53
1017.543	100.09
1017.965	100.22
1018.388	99.68
1018.81	100.24
1019.233	100.15
1019.655	99.1
1020.078	99.53
1020.5	98.79
1020.922	100.77
1021.345	98.95
1021.767	100.43
1022.189	100.21
1022.612	101.33
1023.034	98.67
1023.456	99.87
1023.878	100.59
1024.301	99.21
1024.723	99.95
1025.145	100.54
1025.567	100.69
1025.989	100.05
1026.411	99.69
1026.833	101.49
1027.255	100.25
1027.677	98.63
1028.099	100.18
1028.52	101.09
1028.942	99.84
1029.364	99.62
1029.786	99.37
1030.208	100.13
1030.629	100.7
1031.051	100.22
1031.473	98.8
1031.894	99.4
1032.316	99.92
1032.738	100.26
1033.159	99.51
1033.581	99.61
1034.002	99.86
1034.424	99.1
1034.845	100.59
1035.267	100.24
1035.688	99.67
1036.109	99.11
1036.531	99.8
1036.952	100.3
1037.373	100.97
1037.794	100.56
1038.216	99.96
1038.637	101.03
1039.058	99.86
1039.479	100.11
1039.9	99.1
1040.321	99.34
1040.742	99.96
1041.163	100.79
1041.584	101.51
1042.005	100.69
1042.426	100.66
1042.847	101.66
1043.268	99.29
1043.689	98.05
1044.11	99.81
1044.53	99.41
1044.951	99.42
1045.372	100.69
1045.793	98.89
1046.213	98.78
1046.634	99.94
1047.055	98.84
1047.475	99.99
1047.896	100.32
1048.316	100.89
1048.737	98.32
1049.157	100.94
1049.578	99.13
1049.998	100.76
1050.419	99.55
1050.839	101.01
1051.259	100.17
1051.68	99.72
1052.1	99.48
1052.52	101.29
1052.94	98.01
1053.361	99.21
1053.781	99.2
1054.201	100.41
1054.621	100.13
1055.041	97.99
1055.461	101.11
1055.881	99.61
1056.301	100.26
1056.721	100.63
1057.141	102.21
1057.561	99.92
1057.981	98.27
1058.401	100.76
1058.82	100.53
1059.24	99.54
1059.66	98.48
1060.08	100.44
1060.499	99.75
1060.919	100.57
1061.339	98.67
1061.758	98.71
1062.178	100.6
1062.598	99.09
1063.017	98.23
1063.437	98.6
1063.856	97.88
1064.276	101.25
1064.695	98.84
1065.114	100.94
1065.534	100.64
1065.953	99.72
1066.372	101.31
1066.792	100.41
1067.211	97.93
1067.63	99.91
1068.049	101.4
1068.469	99.31
1068.888	101.54
1069.307	99.43
1069.726	99.52
1070.145	97.85
1070.564	98.02
1070.983	99.31
1071.402	98.29
1071.821	98.97
1072.24	101.23
1072.659	99.48
1073.078	101.49
1073.496	101.34
1073.915	102.16
1074.334	100
1074.753	100.49
1075.171	101.96
1075.59	96.87
1076.009	100.39
1076.427	98.38
1076.846	99.18
1077.265	98.68
1077.683	101.37
1078.102	99.99
1078.52	100.68
1078.939	99.81
1079.357	97.92
1079.776	101.85
1080.194	100.65
1080.612	98.71
1081.031	99.29
1081.449	102.02
1081.867	98.28
1082.285	96.79
1082.704	99.99
1083.122	100.97
1083.54	98.52
1083.958	97.65
1084.376	99.39
1084.794	99.69
1085.212	99.5
1085.63	99.29
1086.048	97.73
1086.466	101.92
1086.884	98.75
1087.302	103.3
1087.72	98.49
1088.138	101.03
1088.555	101.63
1088.973	99.86
1089.391	100.79
1089.809	98.34
1090.226	96.79
1090.644	96.47
1091.062	102.66
1091.479	100.66
1091.897	99.99
1092.314	99.55
1092.732	99.69
1093.15	100.65
1093.567	101.4
1093.984	99.46
1094.402	97.7
1094.819	102.27
1095.237	98.72
1095.654	98.81
1096.071	95.4
1096.488	96.74
1096.906	101.3
1097.323	99.81
1097.74	102.82
1098.157	96.34
1098.574	98.15
1098.991	101.61
1099.409	99.8
1099.826	100.25
1100.243	103.34
1100.66	98.91
1101.077	96.68
1101.494	103.52
1101.91	95.43
1102.327	97.24
1102.744	99.06
1103.161	100.69
1103.578	102.45
1103.994	102.2
1104.411	101
1104.828	102.51
1105.245	104.27
1105.661	101.17
1106.078	98.87
1106.494	102.28
1106.911	102.78
1107.328	100.58
1107.744	101.24
1108.161	99.24
1108.577	104.04
1108.993	103.34
1109.41	106.89
1109.826	101.45
1110.242	98.96
1110.659	96.29
1111.075	102.54
1111.491	95.12
1111.908	100.12
1112.324	101.57
1112.74	100.26
1113.156	96.99
1113.572	102.66
1113.988	104.96
1114.404	107.28
1114.82	101.72
1115.236	104.28
1115.652	96.05
1116.068	98.52
1116.484	98.1
1116.9	94.41
1117.316	109.68
1117.732	47.62
1118.147	71.11
1118.563	533.33
1118.979	-66.67
