Data from JCR0001_SpectralonRef_Reflection_00001.txt Node
Date: Wed Jul 22 11:34:27 ACST 2020
User: Stacey Dix
Spectrometer: MAYP113282
Scans to average: 1
Trigger mode: 0
Integration Time (sec): 1.000000E-1
Electric dark correction enabled: true
Boxcar width: 0
XAxis mode: Wavelengths
Number of Pixels in Spectrum: 2068
>>>>>Begin Spectral Data<<<<<
198.791	-164.29
199.266	35
199.74	-250
200.215	312.5
200.69	151.89
201.164	81.87
201.639	119.47
202.114	90.76
202.588	157.87
203.063	146.18
203.537	116.23
204.012	121.79
204.486	124.01
204.961	100.3
205.435	81.58
205.909	92.28
206.384	122
206.858	129.33
207.332	107.87
207.807	102.06
208.281	121.79
208.755	163.45
209.229	96.93
209.703	85.96
210.177	82.9
210.651	115.62
211.126	140.76
211.6	102.61
212.074	90.46
212.548	100.28
213.021	90.33
213.495	139.31
213.969	124.53
214.443	109.33
214.917	159.35
215.391	100.23
215.864	109.6
216.338	91.5
216.812	97.21
217.286	105.66
217.759	141.48
218.233	98.04
218.706	140.19
219.18	119.58
219.654	104.61
220.127	93.35
220.6	110.96
221.074	92.21
221.547	102.24
222.021	119.58
222.494	130.64
222.967	101.01
223.441	104.43
223.914	109.48
224.387	113.76
224.86	106.11
225.334	109.33
225.807	123.74
226.28	104.41
226.753	108.74
227.226	110.36
227.699	104.55
228.172	104.35
228.645	98.54
229.118	94.41
229.591	98.19
230.064	109.32
230.537	101.76
231.01	107.89
231.482	107.62
231.955	82.01
232.428	113.15
232.901	102.23
233.373	106.73
233.846	89.38
234.319	104.84
234.791	104.37
235.264	108
235.736	93.93
236.209	96.63
236.681	96.12
237.154	98.58
237.626	93.65
238.099	88.79
238.571	104.89
239.044	97.47
239.516	101.09
239.988	102.16
240.46	94.68
240.933	101.73
241.405	100.68
241.877	108.01
242.349	102.28
242.821	99.72
243.293	97.77
243.765	94.68
244.237	105.31
244.71	97.38
245.181	100.69
245.653	102.48
246.125	99.86
246.597	101.52
247.069	102.52
247.541	96
248.013	108.12
248.485	93.9
248.956	96.26
249.428	99.57
249.9	104.16
250.371	105.06
250.843	94.5
251.315	101.05
251.786	98.82
252.258	94.32
252.729	98.15
253.201	99.44
253.672	92.39
254.144	93.77
254.615	96.38
255.086	104.4
255.558	101.19
256.029	102.92
256.5	100.44
256.972	101.19
257.443	98.86
257.914	104.1
258.385	102.65
258.856	98.46
259.327	98.98
259.799	99.93
260.27	101.57
260.741	101.26
261.212	98.98
261.683	103.71
262.154	104.14
262.624	98.11
263.095	97.72
263.566	101.67
264.037	102.53
264.508	97.14
264.979	100.34
265.449	98.71
265.92	102.49
266.391	101.97
266.861	100.84
267.332	100.27
267.803	98.62
268.273	100.27
268.744	100.1
269.214	102.06
269.685	105.32
270.155	101.3
270.626	103.17
271.096	97.75
271.566	102.05
272.037	98.04
272.507	97.8
272.977	100.36
273.448	103.97
273.918	101.93
274.388	99
274.858	99.79
275.328	95.59
275.798	102.36
276.268	98.6
276.738	102.28
277.208	100.61
277.678	102.34
278.148	104.68
278.618	104.18
279.088	99.09
279.558	106.7
280.028	102.72
280.498	101.36
280.968	104.33
281.437	102.27
281.907	98.93
282.377	96.25
282.847	98.06
283.316	96.84
283.786	98.65
284.255	97.98
284.725	99.37
285.194	101.92
285.664	99.67
286.133	98.49
286.603	107.8
287.072	101.68
287.542	99.4
288.011	97.17
288.48	96
288.95	103.26
289.419	100.01
289.888	100.18
290.357	103.31
290.827	99.02
291.296	99.67
291.765	95.85
292.234	99.76
292.703	103.65
293.172	101.13
293.641	97.21
294.11	100.19
294.579	99.05
295.048	100.28
295.517	99.5
295.986	103.22
296.455	100.99
296.923	100.02
297.392	103.77
297.861	97.37
298.33	96.92
298.798	99.65
299.267	102.08
299.736	102.43
300.204	99.28
300.673	101.49
301.141	101.57
301.61	98.56
302.079	101.55
302.547	101.46
303.015	98.56
303.484	98.09
303.952	103.02
304.421	98.59
304.889	98.78
305.357	100.73
305.825	101.4
306.294	103.39
306.762	98.54
307.23	102.2
307.698	102.09
308.166	94.99
308.634	97.49
309.103	101.05
309.571	99.47
310.039	97.2
310.507	96.99
310.975	100.52
311.442	100.87
311.91	102.9
312.378	101.83
312.846	100.88
313.314	99.93
313.782	98.34
314.249	96.62
314.717	105.49
315.185	96.79
315.652	99.67
316.12	102.7
316.588	101.2
317.055	101.9
317.523	101.08
317.99	100.37
318.458	99.93
318.925	102.6
319.393	99.05
319.86	98.61
320.328	99.29
320.795	101.17
321.262	102.85
321.73	98.31
322.197	100.19
322.664	102.86
323.131	99.22
323.598	100.79
324.066	96.62
324.533	100.37
325	100.82
325.467	101.69
325.934	100.53
326.401	101.86
326.868	99.51
327.335	97.98
327.802	100.69
328.269	102.15
328.735	101.66
329.202	99.69
329.669	103.58
330.136	101.72
330.603	98.27
331.069	100.82
331.536	100.82
332.003	103.65
332.469	105.15
332.936	102.08
333.402	99.93
333.869	100.26
334.336	102.37
334.802	100.18
335.268	103.44
335.735	102.64
336.201	101.3
336.668	103.16
337.134	107.16
337.6	101.97
338.067	98.69
338.533	104.41
338.999	99.33
339.465	100.01
339.931	103.4
340.398	95.03
340.864	102.03
341.33	97.43
341.796	102.98
342.262	97.41
342.728	102.73
343.194	99.53
343.66	98.9
344.126	98
344.592	101.39
345.057	100.98
345.523	103.73
345.989	100.92
346.455	102.52
346.921	102.54
347.386	99.25
347.852	105.63
348.318	102.9
348.783	101.91
349.249	103.99
349.714	94.98
350.18	96.32
350.645	102.04
351.111	98.43
351.576	102.98
352.042	99.85
352.507	104.3
352.973	108.25
353.438	102
353.903	101.96
354.369	102.46
354.834	99.6
355.299	103.05
355.764	98.77
356.229	102.2
356.695	98.52
357.16	98.96
357.625	100.92
358.09	104.45
358.555	100.01
359.02	101.99
359.485	97.08
359.95	102.09
360.415	97.9
360.879	103.1
361.344	98.38
361.809	103.56
362.274	98.78
362.739	101.91
363.203	96.6
363.668	101.5
364.133	101.68
364.597	101.46
365.062	101.46
365.527	98.65
365.991	99.22
366.456	99.21
366.92	100.19
367.385	100.28
367.849	103.23
368.314	103.7
368.778	99.4
369.242	105.34
369.707	100.45
370.171	99.58
370.635	103.94
371.1	101.9
371.564	100.64
372.028	100.27
372.492	101.19
372.956	102.06
373.42	99.76
373.884	100.53
374.348	102.72
374.812	100.1
375.276	98.59
375.74	97.38
376.204	106.93
376.668	96.46
377.132	99.86
377.596	95.12
378.06	101.1
378.524	101.18
378.987	97.37
379.451	100.32
379.915	97.15
380.378	97.4
380.842	101.65
381.306	98.2
381.769	103.65
382.233	99.93
382.696	99.7
383.16	98.46
383.623	101.29
384.087	99.15
384.55	102.94
385.014	97.93
385.477	97.21
385.94	103.28
386.404	102.22
386.867	104.42
387.33	104.71
387.793	100.79
388.256	100.69
388.72	98.85
389.183	99.22
389.646	101.72
390.109	104
390.572	101
391.035	99.01
391.498	101.71
391.961	98.6
392.424	99.56
392.887	99.95
393.35	98.51
393.812	94.08
394.275	98.31
394.738	102.55
395.201	103.11
395.664	97.84
396.126	101.52
396.589	103.97
397.052	97.76
397.514	104.56
397.977	102.28
398.439	100.27
398.902	99.18
399.364	102.45
399.827	100.7
400.289	102.12
400.752	103.48
401.214	102.29
401.676	100.61
402.139	100.31
402.601	98.88
403.063	97.8
403.525	100.16
403.988	104.19
404.45	99.94
404.912	102.1
405.374	100.01
405.836	99.05
406.298	104.66
406.76	98.12
407.222	103.09
407.684	94.98
408.146	102.18
408.608	100.09
409.07	100.59
409.532	100.51
409.994	97.45
410.456	103.21
410.917	94.44
411.379	104.16
411.841	101.2
412.303	100.44
412.764	98.34
413.226	100.81
413.687	100.41
414.149	96.26
414.611	96.77
415.072	97.37
415.534	97.75
415.995	101.68
416.457	103.7
416.918	102.32
417.379	99.74
417.841	100.56
418.302	99.74
418.763	97.36
419.225	100.48
419.686	98.53
420.147	100.34
420.608	101.46
421.069	99.17
421.53	102.92
421.991	103.07
422.453	102.1
422.914	97.15
423.375	102.94
423.836	97.53
424.297	100.72
424.757	97.61
425.218	102.01
425.679	97.24
426.14	101.38
426.601	98.45
427.062	99.72
427.522	99.01
427.983	99.5
428.444	104.2
428.904	101.36
429.365	98.61
429.826	98.62
430.286	100.02
430.747	101.92
431.207	101.78
431.668	101.04
432.128	105.7
432.589	101.13
433.049	98.75
433.509	94.2
433.97	104.51
434.43	102.54
434.89	100.02
435.351	99.43
435.811	97.68
436.271	98.94
436.731	105.48
437.191	100.13
437.651	101.52
438.112	104.72
438.572	98.1
439.032	99.27
439.492	98.74
439.952	96.56
440.412	103.02
440.871	103.34
441.331	95.35
441.791	100.57
442.251	101.47
442.711	102.52
443.171	98.71
443.63	106.88
444.09	102.13
444.55	98.02
445.009	98.28
445.469	97.87
445.929	99.09
446.388	95.8
446.848	102.02
447.307	104.82
447.767	99.41
448.226	101.96
448.686	101.01
449.145	104.55
449.604	100.02
450.064	105.4
450.523	101.19
450.982	102.91
451.442	100.62
451.901	98.96
452.36	102.37
452.819	100.62
453.278	100.82
453.737	101.96
454.197	95.71
454.656	101.85
455.115	102.64
455.574	96.77
456.033	99.71
456.492	105.57
456.95	100.57
457.409	102.95
457.868	101.42
458.327	103.47
458.786	102.2
459.245	104.14
459.703	101.65
460.162	102.32
460.621	104.27
461.079	100.02
461.538	100.02
461.997	97.16
462.455	103.44
462.914	96.73
463.372	103.24
463.831	105.09
464.289	100.49
464.748	101.78
465.206	99.68
465.664	100.02
466.123	102.57
466.581	98.13
467.039	105.2
467.497	104.42
467.956	102.82
468.414	101.73
468.872	105.32
469.33	102.47
469.788	103.13
470.246	101.23
470.704	107.83
471.162	100.27
471.62	101.25
472.078	106.64
472.536	96.63
472.994	94.7
473.452	104.45
473.91	101.28
474.368	101.95
474.826	99.52
475.283	96.4
475.741	98
476.199	106
476.656	104.36
477.114	103.64
477.572	101.42
478.029	98.65
478.487	99.5
478.944	107.49
479.402	102.37
479.859	100.66
480.317	102.67
480.774	103.97
481.232	96.14
481.689	102.46
482.146	100.27
482.604	97.91
483.061	105.66
483.518	96.71
483.975	97.97
484.433	96.82
484.89	99.53
485.347	101.45
485.804	104.34
486.261	99.64
486.718	111.58
487.175	98.04
487.632	103.12
488.089	98.47
488.546	99.63
489.003	102.83
489.46	101.17
489.917	104.47
490.373	102.92
490.83	102.43
491.287	93.92
491.744	102.15
492.2	101.64
492.657	105.34
493.114	100.94
493.57	101.32
494.027	102.31
494.484	98.75
494.94	103.66
495.397	102.49
495.853	98.98
496.31	97.34
496.766	98.51
497.222	101.63
497.679	99.9
498.135	102.07
498.591	99.64
499.048	100.39
499.504	99.03
499.96	103.26
500.416	100.27
500.872	107.75
501.329	100.5
501.785	98.3
502.241	105.97
502.697	103.62
503.153	97.33
503.609	102.09
504.065	101.76
504.521	100.82
504.977	104.85
505.432	102.58
505.888	99.15
506.344	99.91
506.8	99.38
507.256	100.45
507.711	102.24
508.167	99.08
508.623	99.72
509.078	97.12
509.534	105.3
509.99	99.92
510.445	97.7
510.901	99.64
511.356	103.59
511.812	98.54
512.267	98.77
512.722	99.54
513.178	102.15
513.633	97.75
514.089	100.48
514.544	97.07
514.999	101.31
515.454	100.1
515.91	99.38
516.365	95.94
516.82	96.65
517.275	106.86
517.73	100.8
518.185	104.4
518.64	101.92
519.095	99.32
519.55	100.62
520.005	104.6
520.46	107.75
520.915	104.16
521.37	102.69
521.825	99.25
522.28	97.17
522.734	104.04
523.189	103.65
523.644	99.4
524.099	98.57
524.553	101.5
525.008	101.45
525.462	101.06
525.917	98.59
526.372	100.1
526.826	103.51
527.281	97.43
527.735	97.97
528.19	99.66
528.644	95.48
529.098	100.29
529.553	104.32
530.007	100.64
530.461	104.23
530.916	103.66
531.37	103.02
531.824	101.53
532.278	100.02
532.732	102.91
533.186	102.62
533.641	96.22
534.095	99.06
534.549	103.61
535.003	101.73
535.457	102.37
535.911	100.41
536.365	97.03
536.818	102.38
537.272	99.82
537.726	99.22
538.18	105.11
538.634	100.82
539.087	98.86
539.541	97.14
539.995	99.07
540.449	100.61
540.902	96.69
541.356	100.61
541.809	100.8
542.263	99.44
542.716	102.04
543.17	96.53
543.623	103.11
544.077	104.12
544.53	97.48
544.984	99.73
545.437	94.97
545.89	100.2
546.344	101.76
546.797	97.99
547.25	103.75
547.703	100.48
548.157	102.51
548.61	104.28
549.063	96.83
549.516	101.1
549.969	105.11
550.422	107.08
550.875	101.96
551.328	98.56
551.781	104.52
552.234	100.53
552.687	105
553.14	101.22
553.592	98.7
554.045	100.01
554.498	100.76
554.951	102.57
555.404	101.21
555.856	98.85
556.309	103.61
556.762	103.25
557.214	100.17
557.667	101.31
558.119	101.91
558.572	100.76
559.024	103.27
559.477	97.43
559.929	99.24
560.382	97.99
560.834	100.3
561.286	98.7
561.739	104.01
562.191	104.09
562.643	100.22
563.095	100.28
563.548	96.64
564	106.26
564.452	98.49
564.904	102.28
565.356	97.85
565.808	99.56
566.26	98.88
566.712	101.56
567.164	103.61
567.616	101.28
568.068	102.52
568.52	98.9
568.972	102.49
569.424	101.56
569.876	99.65
570.327	98.49
570.779	103.91
571.231	98.5
571.682	101.53
572.134	100.6
572.586	101.27
573.037	100.66
573.489	96.73
573.941	100.01
574.392	97.64
574.844	100.07
575.295	99.72
575.746	100.71
576.198	100.01
576.649	98.91
577.101	103.27
577.552	99.55
578.003	99.61
578.454	98.28
578.906	98.82
579.357	99.72
579.808	101.05
580.259	101
580.71	102.32
581.161	103.25
581.612	100.3
582.064	98.64
582.515	99.11
582.965	100.35
583.416	99.5
583.867	102.72
584.318	98.6
584.769	100.93
585.22	102.93
585.671	99.67
586.122	102.03
586.572	99.31
587.023	102.61
587.474	98.56
587.924	101.95
588.375	102.96
588.826	100.99
589.276	98.12
589.727	97.2
590.177	100.99
590.628	99.14
591.078	98.13
591.529	101.88
591.979	98.69
592.429	104.59
592.88	104.42
593.33	102.78
593.78	101.9
594.231	100.3
594.681	103.89
595.131	103.25
595.581	99.89
596.031	99.32
596.481	99.72
596.932	101.97
597.382	99.39
597.832	100.18
598.282	103.3
598.732	103.26
599.182	99.04
599.632	102.52
600.081	98.95
600.531	103.12
600.981	102.65
601.431	96.25
601.881	102.34
602.33	100.63
602.78	100.62
603.23	101.72
603.679	102.54
604.129	103.24
604.579	101.5
605.028	99.52
605.478	94.96
605.927	99
606.377	100.54
606.826	101.45
607.276	102.14
607.725	99.02
608.175	102.12
608.624	97.84
609.073	99.69
609.522	101.4
609.972	98.69
610.421	100.61
610.87	102.44
611.319	102.53
611.768	101.8
612.218	101.35
612.667	101.27
613.116	102.04
613.565	101.47
614.014	101.59
614.463	99.06
614.912	103.12
615.361	101.39
615.81	99.4
616.258	98.3
616.707	103.93
617.156	103.93
617.605	97.6
618.054	100.41
618.502	99.83
618.951	101.53
619.4	105.79
619.848	99.43
620.297	97.43
620.745	101.98
621.194	97.64
621.642	102.19
622.091	101.12
622.539	101.51
622.988	100.39
623.436	101.63
623.885	100.92
624.333	100.77
624.781	102.28
625.23	101.9
625.678	101.28
626.126	98.63
626.574	101.06
627.022	103.09
627.471	99.37
627.919	101.75
628.367	100.05
628.815	102.55
629.263	98.69
629.711	101.23
630.159	96.98
630.607	102.05
631.055	100.27
631.503	100.23
631.95	99.97
632.398	100.96
632.846	101.53
633.294	100.04
633.742	102.86
634.189	99.93
634.637	102.06
635.085	101.04
635.532	101.83
635.98	100.26
636.427	101.75
636.875	104.34
637.323	104.08
637.77	102.17
638.217	104.61
638.665	98.57
639.112	99.79
639.56	100.33
640.007	99.83
640.454	101.51
640.902	100.65
641.349	100.57
641.796	100.22
642.243	99.94
642.69	101.04
643.138	101.15
643.585	102.58
644.032	102.44
644.479	98.83
644.926	100.22
645.373	99.87
645.82	100.04
646.267	99.3
646.714	97.46
647.161	99.77
647.607	99.52
648.054	97.53
648.501	99.26
648.948	101.66
649.395	100.25
649.841	99.15
650.288	100.63
650.735	100.42
651.181	100.91
651.628	99.4
652.075	100.52
652.521	100.96
652.968	99.12
653.414	99.36
653.861	99.05
654.307	100.51
654.753	102.15
655.2	101.58
655.646	102.65
656.092	103.64
656.539	99.42
656.985	100.6
657.431	100.27
657.877	96.87
658.324	102.62
658.77	100.76
659.216	99.81
659.662	101.37
660.108	102.7
660.554	101.65
661	98.01
661.446	101.42
661.892	99.94
662.338	98.83
662.784	99.78
663.23	101.68
663.675	99.57
664.121	101.27
664.567	102.02
665.013	99.48
665.458	99.54
665.904	99.76
666.35	98.79
666.795	103.27
667.241	100.31
667.687	99.85
668.132	102.14
668.578	101.22
669.023	98.8
669.469	100.85
669.914	103.54
670.359	98.68
670.805	102.14
671.25	101.43
671.695	103.13
672.141	101.79
672.586	98.72
673.031	100.9
673.476	100.24
673.922	101.44
674.367	100.46
674.812	97.16
675.257	102.79
675.702	99.16
676.147	99.56
676.592	101.99
677.037	98.07
677.482	101.24
677.927	97.58
678.372	102.79
678.817	98.24
679.261	100.17
679.706	98.57
680.151	99.68
680.596	98.6
681.04	99.71
681.485	98.72
681.93	100.32
682.374	99.66
682.819	102.62
683.264	100.4
683.708	103.03
684.153	99.2
684.597	98.31
685.042	99.9
685.486	100.85
685.93	101.11
686.375	100.92
686.819	97.41
687.263	98.76
687.708	99.73
688.152	99.23
688.596	100.71
689.04	99.48
689.485	101.15
689.929	98.56
690.373	99.86
690.817	100.96
691.261	101.65
691.705	101.06
692.149	100.73
692.593	100.78
693.037	101.72
693.481	100.84
693.925	101.11
694.369	100.67
694.812	100.12
695.256	100.67
695.7	100.82
696.144	98.21
696.587	100.52
697.031	100.73
697.475	99.7
697.918	99.75
698.362	100.24
698.806	100.54
699.249	98.39
699.693	101.89
700.136	99.43
700.58	100.96
701.023	100.25
701.466	100.42
701.91	99.02
702.353	99.15
702.796	101.31
703.24	99.25
703.683	101.57
704.126	100.25
704.569	98.87
705.013	100.09
705.456	98.15
705.899	101.47
706.342	102.05
706.785	101.12
707.228	100.41
707.671	100.61
708.114	100.23
708.557	102.46
709	102.17
709.443	100.3
709.886	101.32
710.328	101.7
710.771	100.03
711.214	100.69
711.657	98.46
712.099	99.52
712.542	101.16
712.985	100.41
713.427	99.69
713.87	100.54
714.313	101.11
714.755	99.39
715.198	100.99
715.64	99.53
716.083	101.39
716.525	100.16
716.967	100.86
717.41	99.54
717.852	99.89
718.295	100.26
718.737	99.52
719.179	97.92
719.621	100.84
720.063	98.77
720.506	99.81
720.948	101.27
721.39	101.55
721.832	100.17
722.274	99.67
722.716	100.1
723.158	101.67
723.6	101.42
724.042	99.15
724.484	99.26
724.926	101.97
725.368	101.34
725.81	101.31
726.251	99.61
726.693	100.89
727.135	98.64
727.577	100.78
728.018	99.68
728.46	100.56
728.902	99.46
729.343	101.9
729.785	101.71
730.226	99.61
730.668	98.89
731.109	100.57
731.551	101.59
731.992	100.55
732.434	103.11
732.875	100.25
733.316	102.19
733.758	100.8
734.199	103.1
734.64	97.61
735.081	102.13
735.523	99.21
735.964	98.33
736.405	99.34
736.846	98.25
737.287	100.54
737.728	99.11
738.169	99.95
738.61	100.23
739.051	96.47
739.492	102.77
739.933	97.88
740.374	98.93
740.815	100
741.256	98.84
741.696	100.23
742.137	98.11
742.578	98.88
743.019	99.12
743.459	102.01
743.9	100.5
744.341	99.15
744.781	102.53
745.222	99.12
745.662	100.96
746.103	100.91
746.543	100.27
746.984	102.04
747.424	98.45
747.865	99.98
748.305	100.34
748.745	102.17
749.186	100.03
749.626	102.31
750.066	99.13
750.506	101.59
750.947	98.56
751.387	97.57
751.827	100.95
752.267	99.98
752.707	100.43
753.147	99.96
753.587	99.54
754.027	99.51
754.467	100.07
754.907	100.37
755.347	101.97
755.787	101.16
756.227	100.35
756.667	98.35
757.107	101.23
757.546	100.77
757.986	99.82
758.426	98.47
758.865	102.32
759.305	99.05
759.745	100.86
760.184	99.94
760.624	101.03
761.063	100.74
761.503	100.9
761.943	103.37
762.382	99.28
762.821	100.13
763.261	100
763.7	101.93
764.14	98.45
764.579	99.57
765.018	100.64
765.457	102.18
765.897	101.27
766.336	102.25
766.775	99.6
767.214	98.7
767.653	99.83
768.092	100.62
768.531	101.46
768.97	98.93
769.409	98.9
769.848	100.34
770.287	101.15
770.726	100.86
771.165	99.16
771.604	99.51
772.043	100.21
772.482	101.1
772.92	99.28
773.359	100.41
773.798	98.93
774.237	98.11
774.675	100.08
775.114	100.39
775.553	99.69
775.991	100.72
776.43	101.12
776.868	100.88
777.307	100.54
777.745	100.65
778.184	101.24
778.622	99.61
779.06	101.48
779.499	100.24
779.937	100.5
780.375	99.52
780.814	101.15
781.252	100.96
781.69	102.37
782.128	98.87
782.566	98.63
783.004	98.98
783.443	99.87
783.881	103.44
784.319	102.15
784.757	100.59
785.195	101.14
785.633	100.92
786.071	98.09
786.508	102.98
786.946	100.08
787.384	100.09
787.822	99.64
788.26	99.93
788.697	99.25
789.135	102.36
789.573	100.2
790.011	98.1
790.448	100.52
790.886	100.52
791.323	99.27
791.761	98.92
792.198	100.43
792.636	98.78
793.073	99.49
793.511	100.28
793.948	100
794.386	99.24
794.823	101.54
795.26	99.92
795.698	101.94
796.135	102.48
796.572	100.24
797.009	101.9
797.446	100.75
797.884	99.95
798.321	99.89
798.758	99.71
799.195	100.32
799.632	99.77
800.069	101.74
800.506	101.21
800.943	98.07
801.38	99.82
801.817	97.71
802.254	100.07
802.69	102.73
803.127	101.41
803.564	100.29
804.001	102.07
804.438	101.7
804.874	98.8
805.311	99.72
805.748	99.99
806.184	100.39
806.621	99.7
807.057	100.49
807.494	100.48
807.93	99.57
808.367	99.02
808.803	100.41
809.24	101.34
809.676	100.17
810.112	100.36
810.549	98.38
810.985	99.63
811.421	99.03
811.857	100.86
812.294	100.47
812.73	100.2
813.166	100.36
813.602	100.68
814.038	99.96
814.474	101.09
814.91	100.75
815.346	100.21
815.782	100.36
816.218	101.71
816.654	100.53
817.09	100.48
817.526	100.78
817.962	101.34
818.398	101.54
818.833	101.66
819.269	98.51
819.705	101.22
820.141	101.33
820.576	100.33
821.012	102.99
821.447	98.42
821.883	99.89
822.319	101.14
822.754	99.4
823.19	100.45
823.625	101.4
824.061	99.27
824.496	99.88
824.931	100.6
825.367	99.79
825.802	100.62
826.237	99.09
826.673	100.1
827.108	98.94
827.543	100.68
827.978	99.34
828.413	100.57
828.849	99.85
829.284	101.11
829.719	101.04
830.154	99.13
830.589	99.65
831.024	101.26
831.459	100.42
831.894	100.41
832.329	100.06
832.763	98.73
833.198	101.31
833.633	100.03
834.068	100.7
834.503	100.77
834.937	100.04
835.372	100.63
835.807	99.98
836.241	100.84
836.676	101.87
837.111	99.67
837.545	98.38
837.98	99.46
838.414	100.38
838.849	99.79
839.283	99.34
839.717	99.61
840.152	99.98
840.586	100.56
841.021	99.77
841.455	99.95
841.889	103.53
842.323	99.39
842.758	99.53
843.192	101.13
843.626	100.45
844.06	99.82
844.494	99.5
844.928	100.21
845.362	99.85
845.796	100.34
846.23	99.43
846.664	99.8
847.098	100.38
847.532	101.2
847.966	101.37
848.4	100.63
848.834	100.99
849.267	98.93
849.701	99.92
850.135	100.91
850.569	100.89
851.002	101.12
851.436	100.79
851.87	101.61
852.303	100.53
852.737	101.69
853.17	101.44
853.604	99.9
854.037	99.3
854.471	99.12
854.904	101.33
855.337	100.95
855.771	101.33
856.204	99.98
856.637	98.91
857.071	100.49
857.504	99.21
857.937	99.39
858.37	100.3
858.804	100.93
859.237	101.01
859.67	101.51
860.103	100.7
860.536	99.57
860.969	102.48
861.402	101.17
861.835	100.4
862.268	101.12
862.701	100.59
863.134	99.11
863.566	99.11
863.999	99.4
864.432	101.01
864.865	100.84
865.298	101.55
865.73	98.87
866.163	99.36
866.596	100.77
867.028	100.3
867.461	100.78
867.893	100.4
868.326	101.67
868.758	100.01
869.191	101.24
869.623	101.43
870.056	100.65
870.488	100.28
870.92	100.69
871.353	100.58
871.785	101.94
872.217	99.22
872.65	99.27
873.082	101.15
873.514	100.57
873.946	101.77
874.378	100.38
874.81	101.23
875.243	100.25
875.675	101.67
876.107	98.91
876.539	101.34
876.971	99.15
877.403	99.69
877.834	101.95
878.266	100.73
878.698	100.98
879.13	99.55
879.562	99.41
879.994	100.06
880.425	100.43
880.857	99.64
881.289	100.14
881.72	100.9
882.152	100
882.584	98.99
883.015	100.75
883.447	100.11
883.878	101.16
884.31	101.12
884.741	100.22
885.173	100.13
885.604	100.61
886.035	101.06
886.467	100.42
886.898	101.32
887.329	99.8
887.76	99.31
888.192	100.1
888.623	100.63
889.054	101.37
889.485	99.77
889.916	101.7
890.347	98.8
890.778	100.55
891.209	100.28
891.64	99.96
892.071	99.94
892.502	101.26
892.933	100.93
893.364	101.12
893.795	100.42
894.226	100.54
894.657	99.45
895.087	100.31
895.518	100.96
895.949	101.42
896.38	101.47
896.81	100.89
897.241	100.7
897.671	101.56
898.102	101.37
898.533	100.69
898.963	100.63
899.394	101.05
899.824	101.21
900.254	100.77
900.685	101.46
901.115	100.25
901.546	101.2
901.976	100.05
902.406	99.73
902.836	100.85
903.267	99.72
903.697	99.65
904.127	100.85
904.557	100.43
904.987	99.91
905.417	99.63
905.847	99.9
906.277	101.09
906.707	99.94
907.137	100.99
907.567	100.44
907.997	100.49
908.427	99.63
908.857	100.61
909.287	100.96
909.717	100.84
910.146	100.9
910.576	101.18
911.006	100.41
911.436	100.81
911.865	100.21
912.295	100.46
912.724	99.51
913.154	99.6
913.584	98.8
914.013	99.88
914.443	99.98
914.872	101.22
915.302	100.93
915.731	99.94
916.16	101.28
916.59	100.38
917.019	100.66
917.448	99.63
917.878	100.39
918.307	99.8
918.736	99.75
919.165	101.28
919.594	100.47
920.023	99.71
920.452	100.32
920.882	99.2
921.311	100.31
921.74	99.44
922.169	101.59
922.597	99.7
923.026	100.26
923.455	101.48
923.884	101.12
924.313	100.78
924.742	100.63
925.171	101.14
925.599	100.25
926.028	100.8
926.457	100.82
926.885	100.58
927.314	102.19
927.743	99.86
928.171	99.65
928.6	99.78
929.028	101.09
929.457	101.07
929.885	100.57
930.314	99.07
930.742	99.53
931.17	100.47
931.599	100.7
932.027	101.03
932.455	98.95
932.884	100.15
933.312	101.14
933.74	100.08
934.168	100.79
934.596	100.06
935.025	100.35
935.453	100.89
935.881	100.54
936.309	101.25
936.737	99.62
937.165	100.33
937.593	101.19
938.021	99.89
938.449	100.07
938.876	100.49
939.304	101.14
939.732	101.64
940.16	100.47
940.588	100.81
941.015	100.33
941.443	100.12
941.871	99.11
942.298	101.38
942.726	99.62
943.154	99.09
943.581	99.06
944.009	101.17
944.436	101.32
944.864	98.67
945.291	99.35
945.718	100.9
946.146	100.95
946.573	100.25
947.001	101.53
947.428	99.51
947.855	100.99
948.282	99.96
948.71	99.42
949.137	98.51
949.564	99.38
949.991	99.95
950.418	100.34
950.845	100.05
951.272	99.83
951.699	99.35
952.126	99.68
952.553	99.14
952.98	100.71
953.407	101.17
953.834	100.94
954.261	99.83
954.688	99.48
955.114	100.6
955.541	100.49
955.968	100.17
956.395	99.81
956.821	99.89
957.248	100.45
957.674	100.34
958.101	100.58
958.528	99.11
958.954	99.79
959.381	100.44
959.807	100.3
960.234	100.15
960.66	99.61
961.086	99.66
961.513	100.74
961.939	100.6
962.365	101.33
962.792	99.33
963.218	99.3
963.644	99.04
964.07	100.21
964.496	100.2
964.923	100.28
965.349	101.01
965.775	99.83
966.201	100.47
966.627	99.64
967.053	100.43
967.479	100.21
967.905	101.24
968.331	99.12
968.756	99.37
969.182	99.71
969.608	101.06
970.034	100.75
970.46	100.85
970.885	99.56
971.311	100.38
971.737	100.27
972.162	100.77
972.588	99.71
973.014	99.42
973.439	101.14
973.865	100.81
974.29	100.5
974.716	101
975.141	100.11
975.567	99.84
975.992	101.38
976.417	99.9
976.843	99.63
977.268	100.03
977.693	99.69
978.119	100.29
978.544	100.25
978.969	100.8
979.394	99.54
979.819	99.77
980.244	99.77
980.669	100.63
981.095	99.32
981.52	100.6
981.945	100.85
982.369	101.21
982.794	100.27
983.219	101.06
983.644	99.4
984.069	101.16
984.494	100.5
984.919	101.22
985.343	99.57
985.768	101.23
986.193	101.04
986.618	99.96
987.042	100.66
987.467	99.15
987.891	100.44
988.316	99.59
988.741	100.94
989.165	100.12
989.59	99.5
990.014	100.81
990.438	100.62
990.863	100.21
991.287	100.04
991.712	100.91
992.136	99.74
992.56	99.56
992.984	100.19
993.409	99.71
993.833	101.21
994.257	100.78
994.681	99.82
995.105	99.45
995.529	99.78
995.953	100.15
996.377	100.51
996.801	101.08
997.225	100.68
997.649	100.24
998.073	100.16
998.497	99.82
998.921	100.6
999.345	99.98
999.769	100.85
1000.192	99.66
1000.616	99.59
1001.04	99.69
1001.464	100.87
1001.887	100.92
1002.311	101.38
1002.734	100.38
1003.158	100.48
1003.582	100.36
1004.005	100.87
1004.429	101.16
1004.852	101.17
1005.275	100.51
1005.699	99.71
1006.122	99.16
1006.546	100.63
1006.969	100.47
1007.392	99.82
1007.815	100.14
1008.239	100.88
1008.662	99.36
1009.085	99.89
1009.508	100.78
1009.931	99.5
1010.354	100.32
1010.778	100.03
1011.201	101.78
1011.624	100.52
1012.047	101.08
1012.469	100.8
1012.892	100.46
1013.315	100.99
1013.738	101.04
1014.161	100.33
1014.584	99.56
1015.007	99.38
1015.429	101.22
1015.852	99.29
1016.275	100.37
1016.697	100.34
1017.12	100.3
1017.543	100.44
1017.965	100.1
1018.388	101.79
1018.81	100.82
1019.233	101.21
1019.655	99.76
1020.078	100.2
1020.5	99.83
1020.922	100.88
1021.345	100.58
1021.767	101.21
1022.189	99.81
1022.612	100.25
1023.034	101.4
1023.456	100.05
1023.878	100.07
1024.301	100.66
1024.723	101.71
1025.145	98.49
1025.567	99.99
1025.989	100.09
1026.411	100.58
1026.833	99.63
1027.255	101.07
1027.677	99.97
1028.099	100.14
1028.52	99.41
1028.942	100.97
1029.364	99.62
1029.786	100.33
1030.208	100.07
1030.629	99.72
1031.051	100.82
1031.473	100.17
1031.894	100.36
1032.316	99.47
1032.738	100.76
1033.159	102.22
1033.581	100.3
1034.002	99.59
1034.424	100.26
1034.845	100.5
1035.267	99.67
1035.688	100.61
1036.109	98.86
1036.531	100.47
1036.952	100.54
1037.373	100.22
1037.794	101.16
1038.216	100.04
1038.637	100.74
1039.058	99.72
1039.479	100.22
1039.9	99.26
1040.321	101.54
1040.742	100.08
1041.163	101.12
1041.584	101.26
1042.005	100.1
1042.426	99.69
1042.847	99.44
1043.268	100.67
1043.689	100.77
1044.11	100.32
1044.53	101.24
1044.951	101.56
1045.372	99.98
1045.793	99.16
1046.213	101.1
1046.634	100.24
1047.055	101.48
1047.475	98.87
1047.896	99.63
1048.316	100.46
1048.737	100.26
1049.157	99.35
1049.578	100
1049.998	101.89
1050.419	101.04
1050.839	101.49
1051.259	99.57
1051.68	101.07
1052.1	100.27
1052.52	100.71
1052.94	100.41
1053.361	99.97
1053.781	99.99
1054.201	100.38
1054.621	101.35
1055.041	99.49
1055.461	99.38
1055.881	99.66
1056.301	100.72
1056.721	100.13
1057.141	99.42
1057.561	100.56
1057.981	100.55
1058.401	101
1058.82	99.41
1059.24	100.66
1059.66	99.51
1060.08	101.61
1060.499	98.11
1060.919	100.93
1061.339	100.07
1061.758	99.86
1062.178	103.4
1062.598	101.18
1063.017	98.65
1063.437	100.88
1063.856	99.87
1064.276	100.86
1064.695	99.47
1065.114	100.98
1065.534	99.48
1065.953	101.72
1066.372	98.99
1066.792	100.95
1067.211	100.56
1067.63	98.96
1068.049	102.13
1068.469	101.46
1068.888	100.4
1069.307	101.66
1069.726	101.65
1070.145	102.42
1070.564	99.98
1070.983	103.75
1071.402	100.71
1071.821	100.17
1072.24	101.06
1072.659	100.65
1073.078	99.92
1073.496	101.22
1073.915	99.79
1074.334	101.79
1074.753	104.45
1075.171	99.16
1075.59	100.58
1076.009	100.63
1076.427	100.54
1076.846	104.68
1077.265	100.07
1077.683	98.51
1078.102	99.83
1078.52	103.33
1078.939	97.88
1079.357	101.77
1079.776	99.3
1080.194	99.11
1080.612	104.39
1081.031	100.46
1081.449	99.89
1081.867	97.92
1082.285	100.53
1082.704	101.2
1083.122	102.5
1083.54	100.88
1083.958	99.21
1084.376	99.25
1084.794	101.61
1085.212	100.85
1085.63	101.68
1086.048	102.03
1086.466	100.51
1086.884	102.33
1087.302	101.84
1087.72	100.86
1088.138	101.06
1088.555	101.54
1088.973	100.4
1089.391	103.38
1089.809	100.27
1090.226	99.59
1090.644	101.38
1091.062	99.53
1091.479	95.93
1091.897	101.21
1092.314	99.95
1092.732	98.31
1093.15	99.6
1093.567	100.72
1093.984	103.03
1094.402	100.38
1094.819	101.82
1095.237	104.55
1095.654	102.2
1096.071	102.82
1096.488	101.76
1096.906	100.34
1097.323	102.62
1097.74	98.81
1098.157	99.19
1098.574	101.57
1098.991	103.32
1099.409	104.18
1099.826	104.43
1100.243	95.7
1100.66	101.25
1101.077	100.5
1101.494	101.25
1101.91	96.91
1102.327	104.57
1102.744	100.8
1103.161	101.09
1103.578	96.74
1103.994	100.49
1104.411	97.42
1104.828	95.85
1105.245	99.82
1105.661	106.41
1106.078	104.3
1106.494	100.57
1106.911	99.69
1107.328	96.35
1107.744	96.56
1108.161	99.08
1108.577	100.02
1108.993	102.1
1109.41	102.31
1109.826	99.2
1110.242	104.56
1110.659	102.43
1111.075	98.01
1111.491	99.87
1111.908	99.25
1112.324	104.06
1112.74	118.11
1113.156	101.29
1113.572	96.76
1113.988	98.68
1114.404	101.53
1114.82	105.75
1115.236	108.98
1115.652	97.51
1116.068	108.94
1116.484	107.87
1116.9	103.72
1117.316	111.99
1117.732	1550
1118.147	-175
1118.563	191.18
1118.979	26.92
